0,1,2,3,4,5,6,7,8,9,10,11,12,13,14,15,16,17,18,19,20,21,22,23,24,25,26,27,28,29,30,31,32,33,34,35,36,37,38,39,40,41,42,43,44,45,46,47,48,49,50,51,52,53,54,55,56,57,58,59,60,61,62,63,64,gesture
-1.4065355932406216,-0.0756321688045521,1.0436303842919432,0.20318820053486955,0.15071592718526508,0.373452201941781,-1.3006573388695462,-0.011047308958181679,1.072615149767655,0.6177439388034262,-0.008542679686839066,0.532424610695944,0.6410378680290648,0.19311017826772262,3.096077477561721,0.06085272737215167,-0.47171973571199916,0.555676087353584,0.29384361133252657,-0.05232423490718969,-1.5759721898736823,-0.11257231439135278,-1.951433150267153,-0.6397669890873593,0.04690022355612639,0.8894062705890176,1.4158067034568849,2.2518974627014825,2.3736073819305976,0.08719409686735045,2.936796158954693,1.3386944280478936,-0.007035033511882471,-0.7037881480191754,-1.5827390142557085,-3.8184609060175445,-0.47886120922552644,-0.23452192152012685,-2.8923158543759246,0.6084289599175813,0.8482665007382212,0.5922601200743811,0.28884430374640024,1.901723865060607,0.29329269317366324,0.1206624512708687,1.0547918814175852,-1.244529295508472,-0.6385616377417602,-0.04885824213197427,1.0257157646679842,0.19189289136873436,-0.2904056948781236,0.2691404159653564,-3.0523232426368057,0.11792596599558111,-0.06325879884534419,0.2431421290861259,-0.07115800354712229,1.921139051200045,-0.8818715303368002,-0.6362056812261353,-3.2575341712760637,-0.6467096967531702,-2.0253022423010814,0
0.09770102409160239,0.5263931570472725,0.2911722456073749,-0.9174825227855375,0.8095450902969792,-0.009482289448242037,1.4464624574099725,1.6132567062792782,-0.19028274028986403,0.3050220071768759,-1.1255501382513322,-1.2106766643825022,-0.4148152757399899,-0.09307189932543866,0.42337947744146004,0.1834500484702746,0.15377853368004327,-3.7563289850446684,0.29384361133252657,0.5126510386828282,0.11812207342291915,-0.013936998962400873,-0.6701553647702506,-0.13723353436247532,0.48455400681877836,4.069416285680203,0.6622559725328482,1.0906968377274386,-0.21924244987017263,0.03847119158218621,-1.4001133216682806,-1.0763043454237675,-0.772263156991342,-0.38842470255521694,-1.205020715848263,0.22514776897703448,-0.14573874703072118,-0.13868595679191587,0.14916865845568744,-0.8131671490922718,0.1000142154456178,-0.6703331809371537,1.7763508478236834,-0.6577259191879069,-0.16848179378786649,0.21757202449380914,-0.22979223404803817,0.6312921038451375,0.35017301324512046,-0.36867391498852387,-0.832510179636241,2.1691483923007757,0.03929886468172829,0.07945241622956785,-0.04956979667370536,0.24587599710311206,0.040641452566999636,0.8572693159086093,0.3039433307853482,-1.4914608339833353,0.046261991431996545,-0.14250255791924638,-1.116437524200028,-0.39407657223728537,-2.0253022423010814,0
-0.10286385821936081,-0.3766448317304645,-0.8375149624194775,0.20318820053486955,-0.37634740330410615,-0.009482289448242037,0.38987792037938845,0.23884561646296598,-0.08504124945173744,0.6177439388034262,0.7361289593561564,2.2755258857743903,-0.018870346826594393,0.0023221265389484266,-2.4549106765342055,-0.9199258414128317,0.049528822114702865,0.555676087353584,-1.1780513668068568,-2.0297376924722523,0.5247046966141035,-0.06325465667687682,-0.2430627696046166,1.4960001934933975,-0.06251322225953661,-1.6546017414839307,-0.09129475839118857,-1.8123047247076711,-0.21924244987017263,0.47697733914866447,2.148267162477789,-2.0931459342539407,0.10228326984232602,1.5037559702285341,1.0612890745964094,0.22514776897703448,-0.6787346865424095,0.005067990300400638,0.36641755222937406,0.2207209301876213,-0.00687896816761127,-0.6703331809371537,0.660720939765721,0.764190627616823,-0.23444957763951357,-0.21852105500942268,-1.5143763495136615,1.3816206635865813,0.13045420191470253,0.9105887764376744,1.0257157646679842,1.6042182491773354,1.0284125433612838,-0.06281358357227358,1.2373245373104806,-0.9056742828646663,0.040641452566999636,1.471396502731093,-0.4462593378795927,1.0679890799042,-0.08632851167783157,0.05497869140350917,-2.8293148418608567,-0.5203931344952278,-2.0253022423010814,0
-0.10286385821936081,-0.0756321688045521,0.2911722456073749,-3.1588239694263516,0.08483301087409369,0.08625133339926373,0.17856101297327162,-0.13599377166875554,0.12544173222451577,-1.2585876509558755,0.36379313983465866,1.6944921274149083,0.24509293911566926,0.05001913947114196,-1.8381342149679913,0.9190339750590121,0.15377853368004327,0.8636764496677449,-0.810077622272011,-2.59471296606227,-0.22069677923640113,-0.21120762982030472,-3.446257233346872,-0.8910337164498013,0.04690022355612639,-1.6546017414839307,-2.351946951163299,-0.6511040997336273,0.04669086621195769,0.4282544338635002,0.9654736677624324,-0.18656795519736596,-0.11635333686609098,-0.7037881480191754,1.0612890745964094,1.6692937243322412,-0.2789877319086433,-0.18660393915602136,-4.195809217018045,0.4791929500075946,-0.00687896816761127,-0.6703331809371537,-0.0830323322729205,1.617340555699661,0.3592604770253104,-0.07315669517501208,1.482986586572793,-0.86936501563775,0.35017301324512046,1.230404449294224,0.2824253869462941,-0.09057218019298581,0.30306251232960973,-0.11023558350622073,-0.2640521856710697,0.8856261526407666,-0.27105930167003184,0.2431421290861259,0.3039433307853482,-2.0602274815138983,-1.0144620334466283,0.10434900373419806,0.8105494581684041,-1.0256593835269976,-2.0253022423010814,0
0.09770102409160239,-0.978670157582289,-0.4612858930771934,-1.4778178844457408,-0.37634740330410615,0.038384521975510844,-1.7232911536817797,-0.26094023437932934,0.12544173222451577,0.6177439388034262,0.7361289593561564,1.6944921274149083,0.24509293911566926,-0.23616293812201927,-0.6045812918355633,1.409423259451504,-0.05472088945063755,-1.600326448845542,-0.44210387773716514,1.925089222657873,-0.35622432030012924,-0.21120762982030472,-1.7378868526843358,-1.1423004438122433,0.48455400681877836,0.8894062705890176,1.0390313379948666,0.8003966814839276,0.24614085327355542,0.28208571800800747,3.1339284080739196,0.5760632364252639,0.10228326984232602,1.1883925247645757,-0.8273024174408177,-0.06368142209400689,0.5205061773588893,0.005067990300400638,1.2354131273241205,0.2207209301876213,-0.4344517026205275,-0.6703331809371537,0.660720939765721,-1.2264925379097988,-1.3559019031175144,-0.02470190856354189,1.482986586572793,-0.3691459758101209,0.020594796249493563,-2.607383624984371,-0.08921980191455092,3.016543606985936,2.0175262220408396,0.126874416163515,-1.1219817416605269,-0.26592412732701165,0.2484419553916873,2.392587282964818,1.0541459994502893,-0.6383108626874902,-0.2852142663425737,-0.0437619332578686,0.1682204640455934,2.3848877974374476,-2.0253022423010814,0
0.5991132298690104,0.22538049412136021,-0.08505682373490923,-0.357147161125334,0.15071592718526508,-0.39241678083826514,0.38987792037938845,0.7386314673052613,0.2306832230626424,-0.633143787702775,-1.8702217772943277,-0.9201597852027612,-0.21684281128329214,0.47929225586088386,0.8345637851522694,-0.18434191482409415,0.049528822114702865,0.24767572503942314,1.76573858947191,1.925089222657873,-1.9825548130648665,-1.8386903343980112,0.6111224207266516,1.6216335571746185,0.9222077900814304,0.571405269079899,0.2854806070708298,-0.36080394349011635,1.3098741176020767,1.2078209184261282,0.5712091695239802,0.5760632364252639,-0.22567164022029945,0.5576656338366586,-0.8273024174408177,-0.3525106131650482,-0.6121101941034485,0.3404938668491391,-0.719826916639059,0.2207209301876213,0.42069376628530497,0.5922601200743811,0.28884430374640024,-0.6577259191879069,0.6231316124318989,0.1691172378823389,-0.015694881470434317,0.38118258393132287,-1.297718071733014,-2.2875679521278216,0.6540705758071392,0.4743579629304545,-0.4222875187020643,0.126874416163515,-0.9074993526631625,-1.2895243761872592,-2.2451640785045646,0.5502057224973675,-0.07115800354712229,-0.06954421515692674,-1.5448240458859408,-1.228649429194402,0.5964397934608006,-0.015126885463458136,-1.0040790179805306,1
3.206456699911532,1.4294311458250095,1.0436303842919432,-0.357147161125334,2.522500914387436,0.7085198819080512,0.6011948277855053,0.988524392726409,-0.08504124945173744,1.5559097336830772,0.7361289593561564,0.532424610695944,0.5090562250579329,1.2424444627759805,0.21778732358605543,0.5512420117646433,1.8217739187254898,-1.600326448845542,-2.64994634494624,-2.312225329267261,-0.5595156318957214,-0.06325465667687682,-1.7378868526843358,-1.5192005348559063,-1.5943014636788186,-1.0185997384656937,0.6622559725328482,1.3809969939709497,-0.8840757400754984,-0.7410952929804417,0.5712091695239802,0.9573788322365788,-2.4120377073044694,0.24230218837270007,1.0612890745964094,0.22514776897703448,-0.41223671678656537,-0.28243990388423235,0.36641755222937406,-1.2008751788222318,2.558557438549886,1.2235567705801484,-0.0830323322729205,-0.373342609826961,-0.10251400993621937,-0.4123402014553035,-0.015694881470434317,0.881401623758952,-0.9681398547373872,1.230404449294224,1.3973609535288292,0.4743579629304545,1.0284125433612838,0.5062504156350922,0.16491259232365896,-0.3938741584345426,1.4952449723398133,0.8572693159086093,-0.07115800354712229,-0.6383108626874902,-0.48410002100731586,0.005608379072820281,-0.47410853007721726,-0.14144344772140055,-1.0040790179805306,1
-0.9051233874632136,-1.881708146360026,1.0436303842919432,-0.0769794802952322,-0.9034107337934774,-0.39241678083826514,0.17856101297327162,0.6136850045946874,0.6516491864151488,-0.007699924449674426,-1.1255501382513322,-0.33912602684327914,1.960854297740383,1.2424444627759805,0.012195169730650749,-0.6747311992165859,0.6750270915067453,-0.06032463727473773,0.29384361133252657,1.0776263122728462,-0.35622432030012924,0.8244631821836904,-0.02951647202179956,1.1191001024497345,-2.5790224760197855,-1.6546017414839307,-1.598396220239262,0.5100965252404166,0.7115241564172835,-0.15642042955847077,-0.41445207607215023,-1.7118303384426257,1.3047846067386193,0.5576656338366586,1.0612890745964094,1.6692937243322412,0.18738371516408406,-1.959569286627925,0.8009153397767472,2.2884970887474076,1.4896256024175956,0.2766117948214974,1.4044742118043625,0.19542400889493097,-2.5433220124471623,-1.3814359336847075,-0.44388958662564204,-0.6192554957239355,-1.9568745057242678,-1.3281209335581727,-2.3190909350796214,-0.9379673948781463,0.698707983801432,0.2217184160314093,-1.1219817416605269,-1.545424438402321,-1.1022613129687824,-1.599239431381324,0.3039433307853482,0.21483910860835492,0.4440335007614809,0.10434900373419806,-0.2599988653696137,-0.26776000997934296,-1.0040790179805306,1
-1.3062531520851401,-0.978670157582289,-1.5899731011040459,-0.357147161125334,0.4801305087411221,1.0914543732980742,1.4464624574099725,0.23884561646296598,-0.29552423112799064,-0.007699924449674426,-0.008542679686839066,0.24190773151620296,-0.5467969187111217,0.05001913947114196,-0.6045812918355633,-0.06174459372597124,-1.9312156976267651,-0.3683249995888986,1.0297911004022182,1.0776263122728462,-0.2884605497682652,-0.852337180108492,-0.2430627696046166,-1.0166670801310222,2.4539960315007123,0.8894062705890176,0.2854806070708298,-0.6511040997336273,1.110424130540479,0.5744231497189929,0.37407692040475415,1.2115892294441222,-0.8815814603455504,-1.0191515934831339,1.8167256714113,0.22514776897703448,-0.9452326562982537,-0.6657837627970764,-0.719826916639059,0.7376649698275679,-1.28959717152636,-0.6703331809371537,-2.686168784408166,-1.2264925379097988,0.16135712547036904,2.1557634889526174,-0.015694881470434317,-0.3691459758101209,1.8882046925580458,1.5502201221507736,-0.46086499077539594,-0.09057218019298581,0.5008852480655209,1.2650024145782466,0.5938773703183876,1.781276370393483,0.2484419553916873,0.5502057224973675,1.0541459994502893,0.4992224323736366,-0.4178047694524018,-0.9324275552102685,-0.9023278594924244,-0.39407657223728537,-1.0040790179805306,1
2.504479611823161,2.031456471676834,-0.8375149624194775,-0.357147161125334,0.8095450902969792,1.3307884304168387,1.023828642597739,2.8627213333850166,-1.4531806303473833,-1.884031514208976,0.7361289593561564,0.24190773151620296,0.5090562250579329,0.5269892687930774,0.21778732358605543,-0.5521338781184629,-0.26322031258131834,-0.3683249995888986,0.6618173558673723,0.5126510386828282,-1.0338620256187698,-0.16188997210582873,0.18402982556101746,-0.5141336254061384,-1.4848880178631556,-1.0185997384656937,-0.09129475839118857,0.5100965252404166,1.6422907627047396,1.597604160707442,0.37407692040475415,-0.31367315380113764,-0.007035033511882471,0.24230218837270007,-0.8273024174408177,-0.6413398042360896,0.18738371516408406,0.9634276375825106,0.14916865845568744,-0.5546951292722986,1.8103051532572827,1.8548534210859158,2.148227483843004,2.186107174421553,-2.0155797416339856,-1.526800293519118,0.6265971762623773,2.006894463371118,-0.6385616377417602,-2.2875679521278216,-0.08921980191455092,-0.6555023233164262,-1.279519373557679,-2.101959580732001,-1.5509465196552554,-1.673374469509852,-2.3490643299169083,1.164332909319851,0.3039433307853482,0.7836057561389183,-0.21891901478765968,-0.9817978675409574,-0.2599988653696137,-0.6467096967531702,-1.0040790179805306,1
-1.807665357862548,-0.0756321688045521,1.0436303842919432,-0.0769794802952322,-1.166942399038163,0.2298517676705224,-0.6667066166511957,-0.3858866970899032,0.335924713900769,-0.633143787702775,-1.1255501382513322,-0.9201597852027612,0.11311129614453745,-0.09307189932543866,0.8345637851522694,2.5127991493346102,1.5090247840294686,0.8636764496677449,-0.44210387773716514,0.23016340188781925,-0.22069677923640113,0.8244631821836904,-0.6701553647702506,0.36529992036240866,-0.39075355970652564,-0.38259773544745657,0.6622559725328482,0.8003966814839276,2.041190736827935,-0.10769752427330653,-0.020187577833698036,1.2115892294441222,-1.2095363704081759,-1.0191515934831339,0.3058524777815185,-0.3525106131650482,-1.0784816411761757,-0.8574556922534984,-1.371573597960119,-2.493235277922098,2.13098470409697,2.1705017463387994,-0.0830323322729205,0.19542400889493097,0.689099396283546,0.1206624512708687,-0.44388958662564204,-0.6192554957239355,1.2290482585667921,1.8700357950073232,-0.08921980191455092,-0.37303725175470603,-1.0157557259097978,-0.34734558317595643,-0.04956979667370536,0.24587599710311206,0.2484419553916873,-0.06392146432511579,0.6790446651178187,0.7836057561389183,-0.4178047694524018,-0.19187287024993527,0.8105494581684041,0.8690890503421388,-1.0040790179805306,1
0.09770102409160239,-0.6776574946563768,-0.8375149624194775,0.48335588136497126,1.0730767555416647,1.5222556761118502,-0.032755894432845205,0.8635779300158352,-0.19028274028986403,-0.633143787702775,-2.242557596815826,0.24190773151620296,1.6309001903125535,1.5763235533013353,-0.19339698412475392,-0.42953655702034005,0.9877762262027666,0.8636764496677449,1.76573858947191,1.0776263122728462,-1.304917107746226,-2.134596280684867,0.18402982556101746,0.36529992036240866,0.04690022355612639,1.5254082736072545,2.1693574343809217,1.0906968377274386,-2.014292333424552,-1.9104450198243836,0.17694467128552804,0.9573788322365788,-0.6629448536371334,-1.3345150389470926,-0.07186582062592695,-0.3525106131650482,1.9862450110160323,1.1550995670389326,0.36641755222937406,-2.3639992680121114,-1.5033835387528183,0.5922601200743811,0.660720939765721,-0.08895930046601501,-2.0815475254856324,-1.7206194399649988,-1.0861816443584538,-0.86936501563775,1.7783452868928369,1.230404449294224,-0.832510179636241,-0.37303725175470603,0.2371216004176394,0.9330484150406165,1.0228421483131163,0.24587599710311206,0.2484419553916873,0.2431421290861259,-0.8213606722120632,0.21483910860835492,0.7092145069811371,0.40057087771833133,0.382330128753197,0.7427724880841964,-1.0040790179805306,1
1.6019376414238264,0.5263931570472725,-0.08505682373490923,-0.357147161125334,0.4142475924299507,-0.39241678083826514,0.17856101297327162,0.7386314673052613,-0.19028274028986403,-0.3204218560762247,1.480800598399152,0.24190773151620296,0.9709919754568944,1.4332325145047546,0.42337947744146004,-1.4103151258053233,-1.2014677166693821,-0.3683249995888986,0.6618173558673723,0.5126510386828282,-0.2884605497682652,0.134015974181027,-0.2430627696046166,0.4909332840436296,0.1563136693717894,0.2534042675707805,1.0390313379948666,0.5100965252404166,-1.3494590432192264,-2.0078908303947123,-0.6115843251913763,-1.0763043454237675,0.758193089967577,-0.07306125709125844,-0.07186582062592695,-0.6413398042360896,0.7203796546757725,-0.33035788624833784,-0.2853291290916858,0.6084289599175813,1.0620528679646792,1.2235567705801484,0.660720939765721,-0.373342609826961,0.3592604770253104,0.36293638432821973,-0.22979223404803817,0.7563468638020447,-0.5287022320765513,0.27095743072457534,0.2824253869462941,0.4743579629304545,-0.6860511663499458,0.5062504156350922,0.3793949813210233,0.5017760593181739,-0.3749595530823757,-1.599239431381324,-1.1964620065445337,-0.3539275389222084,0.2451477460967387,0.8942740010252201,-0.04588920066201017,-1.2782925080428824,-1.0040790179805306,1
0.8999605533354552,0.5263931570472725,-0.8375149624194775,-1.4778178844457408,1.2707255044751788,2.2881246588918964,1.023828642597739,0.988524392726409,1.914547076472668,1.8686316653096275,1.8531364179206498,1.4039752482351673,-1.7346317054513083,-1.1424061838336965,0.6289716312968647,1.6546179016477498,-2.348214543888127,-0.9843257242172203,1.0297911004022182,1.0776263122728462,-1.0338620256187698,-1.5427843881111554,0.3975761231438345,-1.8961006258995692,-0.2813401138908626,0.2534042675707805,-0.46807012385320695,-0.36080394349011635,0.3791075113146206,0.8667605814299785,-1.0058488234298284,-1.2034095440275392,-0.11635333686609098,-0.7037881480191754,-0.8273024174408177,-0.3525106131650482,-0.012489762152799077,0.5321657963055612,-0.5025780228653725,-0.037751089632352,0.8482665007382212,1.2235567705801484,-1.1986622403308826,-1.2264925379097988,1.6126483702066055,-0.07315669517501208,-0.015694881470434317,0.7563468638020447,0.46003241891032937,0.27095743072457534,0.6540705758071392,1.0392881060538948,1.2921761910091654,1.834066413785612,0.16491259232365896,0.6297260904257048,-1.413962067205814,-0.9851122445588408,0.6790446651178187,1.0679890799042,-2.3403670645449095,-2.413536925130935,0.382330128753197,-0.7730262590111127,-1.0040790179805306,1
-0.0025814170638792083,0.5263931570472725,-0.8375149624194775,-1.1976502036156391,0.8095450902969792,1.8573233560781206,-0.24407280183896204,-1.0106190106427722,0.5464076955770222,1.2431878020565268,2.2254722374421476,2.5660427649541315,-1.9985949913935719,-2.0009524166131802,0.6289716312968647,-0.3069392359222171,0.6750270915067453,1.4796771742960666,1.0297911004022182,0.5126510386828282,-0.7628069434913135,-1.4934667303966795,0.6111224207266516,1.7472669208558396,-0.2813401138908626,2.1614102766254915,0.2854806070708298,0.21979636899690563,-0.01979246280857489,0.7693147708596499,-0.020187577833698036,-0.44077835240490926,-0.772263156991342,-1.0191515934831339,-1.5827390142557085,-0.930168995307131,0.3206327000420061,-0.23452192152012685,-0.719826916639059,0.34995694009760797,1.9171983368705119,-1.6172781566958048,-1.1986622403308826,-0.6577259191879069,1.348777234800017,0.7990294638314515,0.19840247110716958,-0.7443102556808427,-0.8582804490721782,-0.6884895878450735,-0.46086499077539594,-0.09057218019298581,1.4240580148331061,1.2650024145782466,0.16491259232365896,-1.1615743450797282,1.3913447209274696,2.0855236895535763,-0.07115800354712229,1.0679890799042,-0.5503952725622299,-0.24124318258062413,0.1682204640455934,0.11118967679448429,-1.0040790179805306,1
-0.5039936228412872,0.8274058199731849,0.667401314949659,-0.0769794802952322,-0.04693282174824913,0.373452201941781,-0.032755894432845205,-0.6357796225110509,0.4411662047388956,-0.007699924449674426,-0.7532143187298346,-0.9201597852027612,-0.1508519897977262,-0.8562241062405354,-0.3989891379801586,0.3060473695683975,-0.47171973571199916,-2.524327535788025,-2.281972600411394,-1.1822747820872255,1.066814860869016,2.353310571332445,-0.2430627696046166,-0.5141336254061384,1.0316212358970933,2.4794112781346103,0.2854806070708298,-0.07050378724660536,0.3791075113146206,-0.10769752427330653,-0.41445207607215023,1.3386944280478936,-0.553626550282925,-0.38842470255521694,1.8167256714113,2.5357812975453653,-0.9452326562982537,-1.5283074453509753,0.8009153397767472,-0.9424031590022585,-0.2206653353940694,-0.03903653043138628,-0.0830323322729205,-0.08895930046601501,-0.16848179378786649,-0.02470190856354189,0.19840247110716958,0.5062373438882302,1.558626475562419,0.27095743072457534,-0.08921980191455092,-0.6555023233164262,0.5668261599774912,1.2175804146442994,0.8083597593157519,-0.13797409621948073,-0.06325879884534419,0.2431421290861259,0.6790446651178187,0.21483910860835492,-1.2796430396662846,-1.3273900538557797,-0.2599988653696137,0.49013936356831156,-1.0040790179805306,1
-1.807665357862548,0.5263931570472725,-0.4612858930771934,0.20318820053486955,-0.7716449011711346,-0.24881634656700644,-0.032755894432845205,-0.510833159800477,1.4935811131201615,2.181353596936178,-1.1255501382513322,-0.9201597852027612,0.5090562250579329,0.6223832946574644,-0.19339698412475392,-0.5521338781184629,0.9877762262027666,-3.4483286227305077,-0.44210387773716514,-0.05232423490718969,-2.321373665724187,-1.0496078109663958,-0.02951647202179956,0.9934667387685135,-1.4848880178631556,-0.06459673393833801,-0.09129475839118857,0.21979636899690563,1.575807433684207,0.03847119158218621,-0.41445207607215023,-1.584725139838854,-0.11635333686609098,-1.649878484411051,-1.205020715848263,-0.6413398042360896,-0.6121101941034485,-0.28243990388423235,-0.06808023531799916,0.4791929500075946,0.1000142154456178,-0.6703331809371537,-0.45490896829224126,-0.6577259191879069,1.2828094509483698,1.138212970111743,-0.22979223404803817,-0.11903645589630628,0.8994700415711652,2.189851467863873,1.0257157646679842,0.19189289136873436,0.30306251232960973,0.9804704149745637,0.16491259232365896,0.7576761215332357,-1.5178623186181577,-0.06392146432511579,0.3039433307853482,1.0679890799042,-0.4178047694524018,-1.0311681798716463,-0.04588920066201017,0.36382280131036915,-1.0040790179805306,1
0.197983465247084,0.5263931570472725,1.0436303842919432,-0.0769794802952322,-1.2328253153493345,-1.0625521407708054,-0.4553897092450789,-0.13599377166875554,0.5464076955770222,-0.3204218560762247,-0.38087849920833683,0.24190773151620296,0.24509293911566926,1.2424444627759805,-0.3989891379801586,-0.3069392359222171,0.2580282452453837,2.71167862355271,0.6618173558673723,0.7951386754778371,-0.08516923817267301,-0.16188997210582873,0.6111224207266516,1.8729002845370606,-0.39075355970652564,-1.6546017414839307,1.0390313379948666,-0.36080394349011635,-0.9505590690960309,-0.7410952929804417,-0.41445207607215023,-0.18656795519736596,-0.553626550282925,-0.7037881480191754,-1.960457312663154,-1.7966565685202551,0.3872571924809672,0.9634276375825106,0.36641755222937406,-0.6839311391822852,-0.3275585190072985,-0.9859815061900373,-0.8267856043115619,-0.6577259191879069,0.09538934161872194,0.9928486102773323,-0.44388958662564204,-0.24409121585321356,0.020594796249493563,0.5907731035811249,1.7690061423896741,1.0392881060538948,-0.2244647829661532,-1.1060975821191108,0.5938773703183876,-0.6497742206496046,1.806945726576845,0.5502057224973675,-1.1964620065445337,-0.06954421515692674,0.4440335007614809,0.3018302530569536,-0.04588920066201017,1.5006718616318508,-1.0040790179805306,1
-0.10286385821936081,0.22538049412136021,0.667401314949659,0.48335588136497126,-0.17869865437059196,0.1819849562467695,0.17856101297327162,0.11389915375239215,-1.1374561578330036,-1.5713095825824257,-2.242557596815826,-1.5011935435622432,1.7628818332836853,2.5779608248773997,1.2457480928630789,0.6738393328627662,2.551521899682873,1.1716768119819059,0.6618173558673723,0.7951386754778371,-0.6950431729594495,-1.937325649826963,-0.6701553647702506,-0.8910337164498013,-1.7037149094944817,-0.38259773544745657,0.6622559725328482,-0.07050378724660536,-0.01979246280857489,-1.17960144054692,0.37407692040475415,-0.5678835510086809,2.507285943634913,0.8730290793006171,0.3058524777815185,0.22514776897703448,0.45388168491992825,0.3884118492132446,1.0181642335504337,0.4791929500075946,2.2378778877101992,-0.03903653043138628,0.28884430374640024,-0.08895930046601501,1.0849060993934285,1.1866677567232131,-0.6579869392032459,0.2561278239744156,-1.517436883063432,-0.6884895878450735,-0.46086499077539594,-0.6555023233164262,-1.4773421092935903,-0.015391583638326439,0.16491259232365896,0.6297260904257048,0.35234220680403117,-0.06392146432511579,-1.1964620065445337,-0.9226941864527718,0.576624003871309,0.3512005653876425,-0.04588920066201017,-0.015126885463458136,-1.0040790179805306,1
-0.30342874053032404,0.8274058199731849,1.0436303842919432,0.48335588136497126,-1.4304740642828488,-0.7274844608045353,-0.6667066166511957,-0.26094023437932934,-1.3479391395092568,-0.9458657193293253,-0.7532143187298346,-0.33912602684327914,-0.1508519897977262,0.05001913947114196,0.42337947744146004,-0.6747311992165859,0.15377853368004327,0.555676087353584,0.29384361133252657,1.360113949067855,0.4569409260822394,-0.6057488915361123,-0.02951647202179956,0.8678333750872925,0.5939674526344414,-0.06459673393833801,0.2854806070708298,0.21979636899690563,-0.41869243693177033,-0.789818198265606,0.5712091695239802,0.0676424420101773,-1.1002180670539674,-1.0191515934831339,-0.4495841190333723,-0.3525106131650482,0.7203796546757725,2.1134592143210424,0.14916865845568744,-0.16698709954233865,1.1689460515779084,0.5922601200743811,0.28884430374640024,-0.08895930046601501,0.49119604472860456,0.2660268111052793,-0.44388958662564204,0.13107306401750832,0.35017301324512046,-0.04885824213197427,-0.46086499077539594,-0.09057218019298581,-0.026642047230242084,0.03203041629562071,-0.04956979667370536,0.7576761215332357,0.7679432124534065,-0.3709850577363575,-0.8213606722120632,0.21483910860835492,0.6429192554262231,-1.179279116863713,1.2387687875836113,0.9954056126000812,-1.0040790179805306,1
0.8999605533354552,-0.0756321688045521,-0.4612858930771934,-1.1976502036156391,-0.11281573805942054,0.5649194476367925,-0.8780235240573125,0.11389915375239215,-0.9269731761567503,-0.007699924449674426,1.8531364179206498,1.6944921274149083,0.8390103324857625,-0.6177390415795676,0.42337947744146004,0.4286446906665204,-0.15897060101597796,-0.06032463727473773,0.6618173558673723,1.6426015858628642,-1.3726808782780902,-0.5071135761071605,0.18402982556101746,-0.13723353436247532,-1.0472342346005037,-0.38259773544745657,0.2854806070708298,-0.07050378724660536,-0.5516590949728355,-0.789818198265606,0.37407692040475415,0.0676424420101773,-0.22567164022029945,-1.0191515934831339,-1.205020715848263,-0.930168995307131,1.3200000866264219,1.5384434259517765,0.5836664460030606,0.2207209301876213,2.13098470409697,1.2235567705801484,-0.45490896829224126,-0.373342609826961,-0.10251400993621937,0.9443938236658621,-1.0861816443584538,0.5062373438882302,-1.517436883063432,0.5907731035811249,1.0257157646679842,0.4743579629304545,-0.026642047230242084,0.3639844158332507,1.6662893153052094,-1.2895243761872592,-1.2061615643811263,-0.06392146432511579,-0.4462593378795927,-0.06954421515692674,-1.4785287943310266,-1.6236119278399128,-1.3305471889076315,-0.8993428212690551,-1.0040790179805306,1
0.49883078871352876,0.8274058199731849,0.667401314949659,0.20318820053486955,-0.24458157068176337,0.08625133339926373,0.17856101297327162,-0.3858866970899032,-1.55842212118551,-0.633143787702775,-0.7532143187298346,-0.6296429060230202,-0.0848611683121603,0.7177773205218516,-0.810173445690968,-1.1651204836090774,0.7792768030720858,-0.9843257242172203,-0.810077622272011,0.7951386754778371,0.9990510903371519,-0.6057488915361123,-0.2430627696046166,0.6165666477248506,-1.8131283553101445,0.2534042675707805,0.2854806070708298,0.21979636899690563,-0.9505590690960309,-0.010251713702978038,-0.020187577833698036,-0.31367315380113764,-0.22567164022029945,-1.9652419298750095,-1.205020715848263,-1.2189981863781723,0.9868776244316166,1.2988535141312492,0.36641755222937406,-1.459347198642205,0.20690739905884684,1.2235567705801484,1.7763508478236834,0.764190627616823,-1.9496119577823383,-1.3329811470732373,-0.22979223404803817,1.1315111436727667,1.2290482585667921,-0.36867391498852387,-0.08921980191455092,-0.09057218019298581,-0.35634660679009394,-0.20507958337411503,0.16491259232365896,0.373826028210643,0.9757437152780942,0.5502057224973675,-0.07115800354712229,0.21483910860835492,-0.08632851167783157,-0.290613494911313,0.382330128753197,0.49013936356831156,-1.0040790179805306,1
-0.40371118168580566,-0.6776574946563768,-1.2137440317617616,-0.6373148419554358,0.6777792576746364,1.0435875618743213,0.6011948277855053,-0.011047308958181679,-0.716490194480497,-0.9458657193293253,-0.38087849920833683,-0.9201597852027612,1.894863476254817,1.0993534239793998,-0.3989891379801586,-0.06174459372597124,-0.05472088945063755,0.555676087353584,1.0297911004022182,1.0776263122728462,-0.9660982550869057,-0.7537018646795403,0.18402982556101746,0.6165666477248506,0.04690022355612639,-0.06459673393833801,1.4158067034568849,1.0906968377274386,-0.7511090820344333,-0.7410952929804417,0.17694467128552804,-0.44077835240490926,2.507285943634913,1.1883925247645757,0.3058524777815185,-0.3525106131650482,0.3206327000420061,-0.7137017451611819,-0.719826916639059,0.2207209301876213,-2.2516358240454215,-0.9859815061900373,-1.5705388763502035,-0.6577259191879069,1.0849060993934285,1.816579982672326,1.268889233995189,1.631730183500396,1.2290482585667921,0.5907731035811249,-0.08921980191455092,0.4743579629304545,-1.4773421092935903,-0.6792995827135864,-1.3364641306578913,0.8856261526407666,0.35234220680403117,-0.06392146432511579,0.6790446651178187,-0.06954421515692674,0.6429192554262231,-0.6362056812261353,-0.04588920066201017,-1.783558757074652,-1.0040790179805306,1
-0.40371118168580566,0.5263931570472725,-1.5899731011040459,-0.9174825227855375,1.5342571697198646,1.665856110383109,-0.24407280183896204,-2.010190712327363,1.388339622282035,0.9304658704299764,2.597808056963645,1.6944921274149083,-0.4148152757399899,-1.1901031967658902,0.012195169730650749,1.6546179016477498,-0.7844688704080204,-0.9843257242172203,-0.44210387773716514,-0.6172995084972076,-0.4239880908319933,-0.901654837822968,-0.4566090671874336,0.23966655668118766,-1.0472342346005037,-0.7005987369565752,-0.09129475839118857,-0.36080394349011635,-0.21924244987017263,0.18463990743767894,0.17694467128552804,0.0676424420101773,1.9606944268638704,0.5576656338366586,-1.205020715848263,-0.6413398042360896,0.9202531319926557,0.5321657963055612,0.8009153397767472,0.9961369896475412,-0.9689176206866729,-1.3016298314429209,-0.8267856043115619,0.47980731825587697,2.668132911832959,1.7196704094493855,-0.015694881470434317,-2.4950768950775446,-2.3963121283851034,-0.04885824213197427,1.0257157646679842,1.6042182491773354,-0.5541693425260051,-0.6792995827135864,0.16491259232365896,-0.6497742206496046,2.7420479892879395,0.8572693159086093,-0.07115800354712229,0.4992224323736366,-1.3459382912211986,-1.7223525525012906,-0.2599988653696137,0.49013936356831156,-1.0040790179805306,1
-0.0025814170638792083,-0.0756321688045521,-0.4612858930771934,-0.6373148419554358,-0.508113235926449,-0.1052159122957478,-0.4553897092450789,-0.6357796225110509,-0.08504124945173744,-0.633143787702775,0.7361289593561564,0.532424610695944,-2.3285490988214015,-1.7624673519522125,-0.19339698412475392,0.3060473695683975,-0.26322031258131834,-0.6763253619030594,0.29384361133252657,0.5126510386828282,0.050358302891055105,-0.6550665492505883,0.3975761231438345,0.7422000114060716,1.0316212358970933,-1.0185997384656937,-1.598396220239262,-0.9414042559771383,1.4428407756431418,1.9873874029887562,0.17694467128552804,-0.31367315380113764,-0.553626550282925,-0.07306125709125844,0.3058524777815185,-0.06368142209400689,-0.2789877319086433,-0.13868595679191587,-0.06808023531799916,0.4791929500075946,0.20690739905884684,-0.6703331809371537,-0.0830323322729205,0.19542400889493097,0.09538934161872194,-0.36388541484383324,-0.015694881470434317,-0.6192554957239355,-0.5287022320765513,-0.6884895878450735,-0.832510179636241,-0.37303725175470603,0.17118068850566903,0.6010944155029865,0.8083597593157519,-0.26592412732701165,0.2484419553916873,0.2431421290861259,-0.4462593378795927,-0.6383108626874902,0.1125572429869106,0.20308962839557582,-0.2599988653696137,-0.6467096967531702,-1.0040790179805306,1
0.8999605533354552,-0.3766448317304645,-0.4612858930771934,-1.1976502036156391,0.4801305087411221,0.5649194476367925,-0.032755894432845205,1.4883102435687043,-1.1374561578330036,0.3050220071768759,-0.7532143187298346,-0.33912602684327914,2.2908084051682125,0.6223832946574644,-0.3989891379801586,-0.6747311992165859,-1.0972180051040417,-0.6763253619030594,2.1337123340067556,1.6426015858628642,-1.7792635014692744,-1.5921020458256314,2.319492801389188,1.4960001934933975,0.04690022355612639,3.1154132811528474,0.2854806070708298,-0.36080394349011635,-1.9478090044040197,-0.4974807665546205,-0.8087165743106024,-1.4576199412350823,-1.1002180670539674,-3.857422602658761,-0.8273024174408177,-0.3525106131650482,2.1194939958939547,0.6280017610337721,0.14916865845568744,0.2207209301876213,2.024091520483741,0.2766117948214974,-0.8267856043115619,-0.9421092285488529,1.0849060993934285,1.0413033968888026,0.6265971762623773,-0.86936501563775,0.6797512302407472,-0.04885824213197427,-0.832510179636241,0.19189289136873436,0.4349443361535505,0.4114064157671979,-0.478534574668434,-0.26592412732701165,-0.06325879884534419,-0.06392146432511579,1.4292473337827598,0.21483910860835492,-0.682985775672058,-0.9324275552102685,0.5964397934608006,0.7427724880841964,-1.0040790179805306,1
-2.710207328261882,-0.3766448317304645,0.667401314949659,-0.0769794802952322,1.138959671852836,0.2777185790942753,0.6011948277855053,-1.2605119360639199,-1.3479391395092568,-0.007699924449674426,-0.7532143187298346,-0.6296429060230202,0.7730195110001966,1.290141475708174,-0.3989891379801586,-0.9199258414128317,-0.36747002414665875,-1.600326448845542,0.29384361133252657,-0.8997871452922166,-0.35622432030012924,0.18333363189550295,-0.4566090671874336,-0.5141336254061384,1.3598615733440824,0.571405269079899,1.0390313379948666,1.3809969939709497,-1.8148423463629546,-1.1308785352617556,-0.020187577833698036,-0.05946275659359434,2.7259225503433298,1.1883925247645757,-0.8273024174408177,-0.930168995307131,0.5871306697978504,0.29257588448503363,-0.2853291290916858,0.7376649698275679,-1.8240630895925054,0.9079084453272648,-0.45490896829224126,-0.08895930046601501,0.4252282608769575,0.7505746772199813,0.41249982368477345,-0.11903645589630628,0.020594796249493563,-2.2875679521278216,-0.46086499077539594,-0.6555023233164262,0.3690034242415801,0.4588284157011451,-0.9074993526631625,1.5253763081784213,-1.1022613129687824,3.313778063198543,-0.8213606722120632,-0.06954421515692674,0.2451477460967387,-0.19187287024993527,-0.04588920066201017,-1.9098753193325946,-1.0040790179805306,1
2.7050444941341243,-0.978670157582289,0.2911722456073749,0.48335588136497126,1.4683742534086932,1.4743888646880974,0.38987792037938845,-1.0106190106427722,-0.08504124945173744,-1.2585876509558755,0.36379313983465866,-0.0486091476635381,-1.272695955052347,-1.5716793002234384,-0.3989891379801586,-0.06174459372597124,-0.26322031258131834,0.555676087353584,1.0297911004022182,0.7951386754778371,-2.1180823541285947,-1.986643307541439,0.18402982556101746,2.2498003755807234,-1.5943014636788186,-1.9726027429930493,-1.2216208547772438,-0.36080394349011635,1.9082240787868698,1.353989634281621,0.5712091695239802,1.0844840308403505,0.320919876550743,1.1883925247645757,-0.07186582062592695,0.22514776897703448,-1.6114775806878643,-0.7137017451611819,-0.06808023531799916,-0.2962231094523253,-0.00687896816761127,-0.35468485568426994,-1.1986622403308826,-1.5108758472707449,1.4147450186516641,0.4598459575511601,-0.44388958662564204,-0.24409121585321356,-2.066733911389477,-0.6884895878450735,-0.832510179636241,0.19189289136873436,1.4899989267450764,1.9763324135874536,0.16491259232365896,-0.3938741584345426,2.326446983638564,1.471396502731093,1.4292473337827598,1.0679890799042,-2.141481309880167,-2.413536925130935,-0.2599988653696137,1.1217221748580235,-1.0040790179805306,1
-1.4065355932406216,-0.3766448317304645,-0.08505682373490923,0.48335588136497126,1.0730767555416647,-0.1052159122957478,0.17856101297327162,-1.135565473353346,-0.4007657219661172,-1.2585876509558755,-0.38087849920833683,-0.6296429060230202,1.0369827969424603,1.9102026438266901,0.21778732358605543,1.164228617255258,1.4047750724641284,0.8636764496677449,-0.44210387773716514,-0.3348118717021986,-1.7792635014692744,-1.3455137572532516,-0.6701553647702506,-0.7654003527685803,-1.1566476804161665,-1.0185997384656937,0.6622559725328482,-0.07050378724660536,-0.08627579182910748,1.353989634281621,0.5712091695239802,0.9573788322365788,-1.8654461905334268,-0.38842470255521694,-0.07186582062592695,-0.6413398042360896,1.5864980563822662,-0.8574556922534984,-1.5888224917338054,-2.2347632581021246,2.2378778877101992,3.1174467220974504,2.148227483843004,0.47980731825587697,-2.4773542285955155,-1.1876167872388268,1.0547918814175852,2.2570039832849327,-0.19912401508092437,0.27095743072457534,-1.204155368497086,-0.09057218019298581,1.6218807505690171,1.2650024145782466,0.5938773703183876,0.8856261526407666,0.2484419553916873,-0.06392146432511579,-1.1964620065445337,-0.9226941864527718,-0.21891901478765968,0.548681814710398,0.5964397934608006,1.1217221748580235,-1.0040790179805306,1
1.6019376414238264,2.3324691346027464,0.2911722456073749,0.20318820053486955,-2.616366557883934,-2.2113556149408744,0.38987792037938845,1.4883102435687043,-3.137044483757409,-3.4476411723417275,1.8531364179206498,1.6944921274149083,-1.86661334842244,-1.4762852743590513,1.2457480928630789,0.5512420117646433,-1.7227162744960842,-0.3683249995888986,1.397764844937064,0.7951386754778371,-0.22069677923640113,-2.035960965255915,-0.2430627696046166,-0.13723353436247532,0.26572711518745235,0.571405269079899,-0.09129475839118857,-0.9414042559771383,2.2406407238895327,1.8899415924184275,0.17694467128552804,0.44895803782149224,2.3979676402807044,1.1883925247645757,-0.4495841190333723,-0.3525106131650482,0.7870041471147335,1.1071815846748272,-0.5025780228653725,-1.0716391689122453,0.7413733171249921,-1.3016298314429209,-0.0830323322729205,0.19542400889493097,-0.3004173614911607,0.6052103173855706,-0.015694881470434317,-0.11903645589630628,-0.9681398547373872,-0.6884895878450735,-0.08921980191455092,-0.09057218019298581,-0.026642047230242084,0.03203041629562071,0.16491259232365896,-0.010024065111949814,1.3913447209274696,0.8572693159086093,1.80434866811523,0.4992224323736366,-0.9481667818917142,-0.5374650565647575,-0.6882181947848208,-0.14144344772140055,-1.0040790179805306,1
-0.5039936228412872,-0.6776574946563768,-1.96620217044633,-1.7579855652758427,-1.2987082316605059,0.8999871276030627,0.17856101297327162,-0.3858866970899032,0.2306832230626424,0.9304658704299764,2.597808056963645,2.5660427649541315,2.620762512596042,-0.04537488639324511,1.040155939007674,-0.42953655702034005,-1.0972180051040417,-0.06032463727473773,-0.07413013320231926,0.5126510386828282,-0.22069677923640113,-0.21120762982030472,-0.02951647202179956,-1.2679338074934643,-1.3754745720474926,-1.0185997384656937,-0.8448454893152254,0.21979636899690563,-0.5516590949728355,-0.15642042955847077,0.17694467128552804,2.355536016878067,0.10228326984232602,1.1883925247645757,1.0612890745964094,0.5139769600480758,1.3200000866264219,0.9634276375825106,-0.06808023531799916,-1.5885832085521918,-1.182703987913131,-3.1955197829602233,-3.4299220564468076,-1.7952591566316909,2.3382939925747235,2.543401781844379,-0.015694881470434317,-0.49420073576702817,-0.4188428264113423,2.829482813576972,2.5122965201113643,1.6042182491773354,-1.279519373557679,-2.1968035805998953,-0.6930169636657983,0.7576761215332357,0.8718434638657504,-0.3709850577363575,0.6790446651178187,-0.06954421515692674,-2.2740718129899955,-1.6236119278399128,-1.5446568536152352,-0.6467096967531702,-1.0040790179805306,1
-1.0054058286186953,-1.2796828205082014,-1.96620217044633,-0.357147161125334,0.6777792576746364,1.0914543732980742,-0.24407280183896204,0.988524392726409,1.2830981314439083,-0.007699924449674426,-1.49788595777283,-0.6296429060230202,0.9050011539713284,1.3378384886403676,0.012195169730650749,-1.0425231625109546,-0.05472088945063755,-2.216327173473864,-2.281972600411394,-0.6172995084972076,0.3214133850185113,0.3312866050389308,-0.4566090671874336,1.8729002845370606,-0.5001670055221886,4.069416285680203,2.1693574343809217,2.2518974627014825,-2.280225649506683,-1.5206617775430697,0.17694467128552804,-0.44077835240490926,1.1954663033844108,-1.649878484411051,1.8167256714113,1.0916353421901586,-0.5454857016644874,-1.3366355158945533,-0.9370758104127456,-1.847055228372165,0.9551596843514503,1.539205095833032,-0.8267856043115619,-0.6577259191879069,0.49119604472860456,0.7021198906085111,0.19840247110716958,0.2561278239744156,-0.8582804490721782,-1.3281209335581727,-1.5758005573579312,-1.2204324664398665,1.0943534552732543,1.7866444138516648,-0.2640521856710697,-0.7777242517571354,-1.6217625700305016,-0.3709850577363575,-1.1964620065445337,-1.4914608339833353,0.6429192554262231,0.3018302530569536,0.5964397934608006,2.763837484211275,-1.0040790179805306,1
1.2008078768019,0.22538049412136021,-0.4612858930771934,-0.6373148419554358,-0.7057619848599631,-0.6796176493807824,-0.032755894432845205,1.113470855436983,1.2830981314439083,2.8067974601892782,0.7361289593561564,1.6944921274149083,-1.4046775980234787,-0.8562241062405354,-0.3989891379801586,-0.06174459372597124,-0.68021915884268,-4.06432934735883,-1.1780513668068568,-0.8997871452922166,0.5247046966141035,0.2819689473244548,0.18402982556101746,1.1191001024497345,-0.7189938971535146,-1.9726027429930493,-1.2216208547772438,-0.6511040997336273,2.174157394869,1.8899415924184275,-0.020187577833698036,-1.584725139838854,1.7420578201554533,0.8730290793006171,2.1944439698187455,2.246952106474324,-1.544853088248903,-1.7199793748073975,-0.06808023531799916,1.2546090094675144,0.527586949898534,1.2235567705801484,-0.45490896829224126,-0.9421092285488529,-0.10251400993621937,-0.12161148178648229,0.19840247110716958,1.256565903629674,1.1191888529015832,1.8700357950073232,1.3973609535288292,0.7568230344921747,0.3690034242415801,0.8856264151066694,1.0228421483131163,1.5253763081784213,-2.7646653355662836,-0.9851122445588408,-1.946664675209475,-1.2070775102180535,0.7092145069811371,0.9930146256865979,-0.2599988653696137,-1.15197594578494,-1.0040790179805306,1
1.2008078768019,0.22538049412136021,-0.8375149624194775,-1.7579855652758427,0.28248175980760787,1.4743888646880974,-0.032755894432845205,1.113470855436983,0.6516491864151488,1.2431878020565268,1.8531364179206498,1.4039752482351673,2.2908084051682125,0.14541316533552906,0.8345637851522694,0.06085272737215167,-1.6184665629307438,-0.9843257242172203,0.29384361133252657,0.5126510386828282,-2.1858461246604586,-1.2961960995387756,-0.4566090671874336,-1.1423004438122433,-0.6095804513378517,-0.7005987369565752,0.2854806070708298,-0.07050378724660536,-0.08627579182910748,-0.35131205069912774,0.5712091695239802,0.7031684350290355,-0.11635333686609098,-0.38842470255521694,-0.8273024174408177,-0.3525106131650482,-0.2789877319086433,0.19673991975682265,-0.2853291290916858,-0.037751089632352,0.9551596843514503,-0.6703331809371537,-1.1986622403308826,-1.7952591566316909,-0.6302562807493961,0.9443938236658621,0.19840247110716958,0.13107306401750832,-1.187858666067805,-0.04885824213197427,0.6540705758071392,1.6042182491773354,-0.8838739020858569,-1.5803175814585824,-0.9074993526631625,-0.6497742206496046,1.079643966690438,1.7784600961423345,-0.07115800354712229,0.21483910860835492,0.9081002616458793,0.548681814710398,0.382330128753197,0.49013936356831156,-1.0040790179805306,1
0.197983465247084,1.4294311458250095,0.2911722456073749,0.763523562195073,0.6118963413634649,0.1819849562467695,-0.4553897092450789,1.2384173181475568,0.6516491864151488,-0.633143787702775,-0.38087849920833683,-0.6296429060230202,0.11311129614453745,0.47929225586088386,-0.3989891379801586,-0.6747311992165859,-1.2014677166693821,-0.06032463727473773,-0.44210387773716514,0.23016340188781925,1.066814860869016,1.07105147075607,-0.02951647202179956,-1.0166670801310222,-1.4848880178631556,0.2534042675707805,-0.8448454893152254,-0.07050378724660536,0.312624182294088,0.08719409686735045,-0.6115843251913763,0.8302736336328072,0.10228326984232602,-1.9652419298750095,-0.8273024174408177,-0.3525106131650482,-1.9446000428826695,0.3404938668491391,0.36641755222937406,-1.0716391689122453,-0.00687896816761127,-0.03903653043138628,1.0325975757850419,0.19542400889493097,-1.157998551562573,-1.6721646533535286,-0.015694881470434317,0.38118258393132287,0.46003241891032937,0.5907731035811249,0.6540705758071392,-0.6555023233164262,-0.9498148139978273,-0.9638315823172693,-0.2640521856710697,-0.13797409621948073,-0.3749595530823757,-0.6780486511475992,-0.8213606722120632,-0.9226941864527718,1.703643280304848,1.1904958750093535,0.1682204640455934,0.2375062390524267,-1.0040790179805306,1
-0.30342874053032404,-0.0756321688045521,0.2911722456073749,0.763523562195073,-0.508113235926449,-0.5360172151095238,-0.24407280183896204,-0.8856725479321985,1.072615149767655,-0.007699924449674426,-1.49788595777283,-1.5011935435622432,-0.6787785616822535,-0.8085270933083418,-0.810173445690968,-0.7973285203147088,0.7792768030720858,0.24767572503942314,0.29384361133252657,1.6426015858628642,1.405633713528336,1.366957417042926,0.8246687183094685,-0.13723353436247532,-0.9378207887848407,-0.38259773544745657,-0.09129475839118857,-0.07050378724660536,-0.21924244987017263,-0.205143334843635,-0.41445207607215023,-1.7118303384426257,1.6327395168012449,0.5576656338366586,1.0612890745964094,0.22514776897703448,-1.34497961093202,-1.4324714806227643,-0.5025780228653725,1.9007890590174474,-0.4344517026205275,-0.35468485568426994,0.28884430374640024,0.19542400889493097,0.755067180135193,-0.12161148178648229,0.8406945288399812,-0.7443102556808427,-0.30898342074613333,-1.9677522792712718,-0.832510179636241,-0.37303725175470603,0.5668261599774912,0.3639844158332507,-0.6930169636657983,-0.26592412732701165,1.9108459779891886,1.7784600961423345,0.3039433307853482,0.7836057561389183,-0.48410002100731586,0.05497869140350917,0.5964397934608006,-1.2782925080428824,-1.0040790179805306,1
1.3010903179573816,2.031456471676834,0.667401314949659,1.0436912430251748,2.3248521654539216,-0.6796176493807824,0.38987792037938845,0.8635779300158352,-1.55842212118551,-0.007699924449674426,-0.7532143187298346,0.24190773151620296,-0.4148152757399899,0.7177773205218516,-0.6045812918355633,-0.7973285203147088,2.134523053421511,-0.6763253619030594,-1.1780513668068568,-0.8997871452922166,1.6766887956557923,2.156039940474541,0.18402982556101746,-0.8910337164498013,-2.0319552469414703,-0.7005987369565752,0.6622559725328482,1.0906968377274386,-1.0170423981165635,-1.4719388722579054,0.5712091695239802,-0.05946275659359434,0.2116015731965345,-0.07306125709125844,-0.4495841190333723,-0.930168995307131,0.5205061773588893,0.6759197433978776,0.14916865845568744,0.8669009797375545,-0.00687896816761127,-1.3016298314429209,-1.1986622403308826,-0.373342609826961,-0.03654622608457227,0.21757202449380914,0.19840247110716958,-0.7443102556808427,-0.9681398547373872,0.27095743072457534,-0.08921980191455092,0.7568230344921747,-0.2244647829661532,-0.20507958337411503,-0.6930169636657983,0.5017760593181739,0.35234220680403117,-0.6780486511475992,-0.8213606722120632,-1.4914608339833353,2.3665957958539883,2.0297911846310646,0.8105494581684041,1.3743552993739085,-1.0040790179805306,1
-0.30342874053032404,0.5263931570472725,1.0436303842919432,-0.0769794802952322,-0.11281573805942054,-2.019888369245863,-0.24407280183896204,-0.011047308958181679,-1.6636636120236366,-1.884031514208976,-1.49788595777283,-1.2106766643825022,-2.3285490988214015,0.2885042041321097,-0.19339698412475392,-0.5521338781184629,2.447272188117532,1.7876775366102275,0.6618173558673723,2.207576859452882,-0.49175186136385735,0.8244631821836904,0.8246687183094685,0.8678333750872925,1.0316212358970933,0.8894062705890176,0.2854806070708298,0.5100965252404166,-1.282975714198694,-1.9104450198243836,0.17694467128552804,0.32185283921772057,-0.553626550282925,-1.3345150389470926,-0.4495841190333723,-0.930168995307131,1.1201266093095388,1.4426074612235658,0.36641755222937406,-1.2008751788222318,-0.2206653353940694,0.5922601200743811,-0.45490896829224126,0.764190627616823,2.140390641019782,1.1866677567232131,0.8406945288399812,0.2561278239744156,-1.187858666067805,-2.2875679521278216,-2.3190909350796214,-0.9379673948781463,0.6327670718894616,1.7392224139177177,-0.04956979667370536,0.6297260904257048,0.35234220680403117,0.2431421290861259,0.3039433307853482,0.4992224323736366,-1.1470525365564563,0.20308962839557582,0.1682204640455934,-0.39407657223728537,-1.0040790179805306,1
-0.7045585051522505,-0.0756321688045521,-0.08505682373490923,-0.9174825227855375,0.7436621739858078,-0.5838840265332766,-0.6667066166511957,-1.3854583987744937,0.7568906772532754,0.6177439388034262,-0.38087849920833683,0.532424610695944,0.37707458208680106,0.5746862817252709,-0.19339698412475392,0.5512420117646433,-2.4524642554534672,0.8636764496677449,-0.07413013320231926,-0.05232423490718969,-0.15293300870453705,-0.21120762982030472,-0.02951647202179956,-0.8910337164498013,-0.6095804513378517,-0.38259773544745657,0.2854806070708298,0.5100965252404166,0.312624182294088,0.9642063920003069,0.37407692040475415,-1.7118303384426257,0.976829696675994,-1.0191515934831339,-0.07186582062592695,0.22514776897703448,-0.8119836714203317,0.10090395502861164,0.14916865845568744,0.6084289599175813,-2.0378494568189636,0.5922601200743811,-1.1986622403308826,-0.9421092285488529,0.49119604472860456,0.6052103173855706,-0.015694881470434317,-0.49420073576702817,0.8994700415711652,0.9105887764376744,-0.832510179636241,-0.09057218019298581,1.4899989267450764,0.8856264151066694,0.3793949813210233,1.0135761837482975,-0.790560558731751,0.5502057224973675,1.0541459994502893,1.0679890799042,-2.5392528192096515,-2.018574426485424,-0.9023278594924244,-1.783558757074652,-1.0040790179805306,1
-0.40371118168580566,0.8274058199731849,2.1723175923187954,1.3238589238552767,-1.8257715621498771,-1.589087066432087,0.38987792037938845,0.8635779300158352,-0.9269731761567503,-0.9458657193293253,0.36379313983465866,-0.33912602684327914,-0.48080609722555584,0.05001913947114196,-0.3989891379801586,-1.1651204836090774,0.049528822114702865,1.1716768119819059,0.6618173558673723,-0.05232423490718969,0.18588584395478322,-0.5564312338216364,-0.02951647202179956,0.9934667387685135,1.0316212358970933,-1.336600739974812,-0.46807012385320695,-0.07050378724660536,0.9774574724994138,1.012929297285471,-0.020187577833698036,-2.220251132857712,1.7420578201554533,-0.07306125709125844,-0.07186582062592695,-0.3525106131650482,0.2540082076030451,0.6280017610337721,0.36641755222937406,0.4791929500075946,-0.6482380698469856,-0.35468485568426994,-1.1986622403308826,-0.6577259191879069,0.22732490932201616,0.36293638432821973,0.19840247110716958,0.0060183040606010185,1.009329447236374,0.9105887764376744,1.3973609535288292,1.8866833207390554,-0.4222875187020643,-0.8215655825154279,0.5938773703183876,0.5017760593181739,-0.790560558731751,0.2431421290861259,0.6790446651178187,-0.06954421515692674,1.1069860163106215,-0.290613494911313,0.382330128753197,0.616455925826254,-1.0040790179805306,1
2.7050444941341243,1.4294311458250095,1.7960885229765113,1.3238589238552767,-1.95753739477222,-1.30188619788957,0.38987792037938845,1.863149631700426,0.2306832230626424,0.6177439388034262,0.36379313983465866,0.24190773151620296,0.31108376060123516,-0.47464800278298697,-0.19339698412475392,0.6738393328627662,-0.7844688704080204,0.24767572503942314,-0.07413013320231926,-0.6172995084972076,1.3378699429964722,0.7258278667547384,0.3975761231438345,-0.13723353436247532,0.8127943442657674,-0.7005987369565752,-1.2216208547772438,-0.36080394349011635,1.6422907627047396,1.9873874029887562,-0.21731982695292412,1.4657996266516653,-0.9908997636997589,-0.07306125709125844,-0.07186582062592695,0.5139769600480758,-2.6774694597112414,-2.3908311279048746,0.8009153397767472,-0.4254591193623119,0.7413733171249921,0.5922601200743811,-0.0830323322729205,-0.373342609826961,1.8105517217615468,1.2835773299461535,0.8406945288399812,0.38118258393132287,-1.7371556943938498,-0.6884895878450735,0.6540705758071392,0.4743579629304545,-0.8179329901738865,-1.2483635819209522,-0.04956979667370536,-0.7777242517571354,-0.790560558731751,0.2431421290861259,-0.4462593378795927,-0.3539275389222084,1.5710527771950198,1.5854583736548646,-0.47410853007721726,-0.26776000997934296,-1.0040790179805306,1
0.699395671024492,1.4294311458250095,2.1723175923187954,2.1643619663455818,-1.4963569805940202,-2.1156219920933688,-0.032755894432845205,0.6136850045946874,2.230271548987048,1.8686316653096275,-0.008542679686839066,-0.6296429060230202,0.24509293911566926,0.5269892687930774,0.6289716312968647,3.1257857548252246,-1.9312156976267651,-0.6763253619030594,1.0297911004022182,0.7951386754778371,0.5247046966141035,-0.901654837822968,0.3975761231438345,-0.13723353436247532,2.6728229231320384,0.571405269079899,-0.46807012385320695,-0.6511040997336273,0.04669086621195769,0.03847119158218621,-0.21731982695292412,0.9573788322365788,-1.5374912804708014,-1.9652419298750095,-2.7158939094780448,-1.7966565685202551,1.6531225488212271,2.1134592143210424,-0.2853291290916858,-2.1055272481921383,-1.28959717152636,1.2235567705801484,1.7763508478236834,1.332957246338715,-2.345418660892221,-2.2536220926911708,-0.22979223404803817,-0.3691459758101209,-0.6385616377417602,0.9105887764376744,-0.832510179636241,-1.2204324664398665,0.4349443361535505,-0.11023558350622073,-0.2640521856710697,0.5017760593181739,0.456242458216375,-1.2921758379700825,0.3039433307853482,0.4992224323736366,-0.08632851167783157,-0.3893541195726908,-0.04588920066201017,-0.14144344772140055,-1.0040790179805306,1
-1.7073829167070662,-1.5806954834341138,-0.4612858930771934,0.48335588136497126,0.8095450902969792,0.7085198819080512,-1.0893404314634294,-1.3854583987744937,1.914547076472668,-0.007699924449674426,-0.7532143187298346,-1.5011935435622432,-0.018870346826594393,0.14541316533552906,1.2457480928630789,2.390201828236487,-1.8269659860614247,0.8636764496677449,1.397764844937064,0.5126510386828282,-1.304917107746226,-0.21120762982030472,1.0382150158922856,2.2498003755807234,1.2504481275284194,1.5254082736072545,0.6622559725328482,0.8003966814839276,0.04669086621195769,0.2333628127228432,0.5712091695239802,0.5760632364252639,-1.4281729771165927,-4.1727860481227195,-0.4495841190333723,-0.3525106131650482,2.5192409505277205,1.586361408315882,1.2354131273241205,0.34995694009760797,1.0620528679646792,3.1174467220974504,0.660720939765721,0.764190627616823,-1.883644173930691,-1.8175290131879391,-0.44388958662564204,-0.3691459758101209,0.7896106359059563,-1.0083052607016232,-0.08921980191455092,-0.37303725175470603,-0.4882284306140347,-1.2957855818548993,-0.9074993526631625,-1.41747440729479,-0.9983610615564386,0.2431421290861259,-0.07115800354712229,0.21483910860835492,-0.5503952725622299,0.20308962839557582,-0.6882181947848208,0.7427724880841964,-1.0040790179805306,1
-1.2059707109296585,0.8274058199731849,-0.8375149624194775,0.48335588136497126,0.08483301087409369,-0.29668315799075934,-1.0893404314634294,-1.8852442496167892,2.3355130398251744,0.6177439388034262,0.36379313983465866,-0.33912602684327914,-0.6787785616822535,0.19311017826772262,0.42337947744146004,-0.06174459372597124,0.4665276683760645,-0.3683249995888986,-0.810077622272011,0.23016340188781925,0.7279960082096957,-0.26052528753478066,-0.2430627696046166,0.8678333750872925,0.1563136693717894,-0.38259773544745657,-1.2216208547772438,-0.6511040997336273,-0.08627579182910748,0.18463990743767894,-0.41445207607215023,0.19474764061394895,1.8513761235096617,0.24230218837270007,0.3058524777815185,0.22514776897703448,-0.8786081638592926,-0.18660393915602136,0.14916865845568744,0.7376649698275679,-2.572315374885109,-0.03903653043138628,-0.8267856043115619,-0.373342609826961,2.008455073316488,1.2351225433346833,-1.3002789969360575,-2.3700221351206374,2.8769393435449264,-0.36867391498852387,1.7690061423896741,1.321753177615615,-1.0157557259097978,-0.7267215826475336,1.8807717043025736,2.9328266503612617,-0.16715905025768804,-1.2921758379700825,-0.07115800354712229,0.21483910860835492,0.046261991431996545,-0.3399838072420019,-0.6882181947848208,-0.5203931344952278,-1.0040790179805306,1
0.09770102409160239,1.4294311458250095,1.0436303842919432,0.20318820053486955,0.7436621739858078,-0.009482289448242037,0.17856101297327162,-0.8856725479321985,-1.55842212118551,-0.007699924449674426,-0.38087849920833683,-0.6296429060230202,0.17910211763010336,1.194747449843787,0.42337947744146004,-0.3069392359222171,1.4047750724641284,0.24767572503942314,1.0297911004022182,0.5126510386828282,-1.6437359604055464,-0.6550665492505883,0.3975761231438345,0.8678333750872925,-1.1566476804161665,0.8894062705890176,0.6622559725328482,-0.36080394349011635,-0.48517576595230294,-2.154059546250205,-0.41445207607215023,1.3386944280478936,-2.193401100596052,-2.5959688208029266,-0.07186582062592695,0.5139769600480758,0.3206327000420061,-0.13868595679191587,0.5836664460030606,-1.3301111887322186,-0.3275585190072985,0.2766117948214974,-1.1986622403308826,-0.6577259191879069,0.689099396283546,1.9134895558952663,0.19840247110716958,-1.6196935753791937,1.338907664232001,0.9105887764376744,-0.46086499077539594,0.19189289136873436,0.4349443361535505,0.03203041629562071,0.3793949813210233,0.373826028210643,1.3913447209274696,0.8572693159086093,-0.07115800354712229,-0.6383108626874902,0.1125572429869106,0.20308962839557582,0.8105494581684041,2.0059381106636205,-1.0040790179805306,1
0.5991132298690104,-0.3766448317304645,0.2911722456073749,1.6040266046853784,-1.166942399038163,-1.7326875007033458,1.023828642597739,1.113470855436983,-1.4531806303473833,-0.9458657193293253,-1.1255501382513322,-1.7917104227419844,-0.8107602046533854,0.7177773205218516,0.42337947744146004,-0.7973285203147088,1.9260236302908302,2.0956778989243885,1.0297911004022182,0.7951386754778371,0.7279960082096957,-0.6550665492505883,0.6111224207266516,0.8678333750872925,-3.016676259282437,-2.290603744502168,-0.46807012385320695,-0.36080394349011635,-0.3522091079112378,0.7205918655744856,0.9654736677624324,0.7031684350290355,2.1793310335722875,1.1883925247645757,1.0612890745964094,0.8028061511191171,1.9862450110160323,0.7238377257619831,-2.4578180668285516,-1.3301111887322186,-1.8240630895925054,-0.9859815061900373,0.660720939765721,1.048573936977769,-0.9600952000076317,-0.9453428541814757,-1.9425710546688693,-0.6192554957239355,0.7896106359059563,0.27095743072457534,-0.46086499077539594,-0.37303725175470603,-1.081696637821768,0.126874416163515,1.451806926307845,1.1415262148558285,-1.5178623186181577,-0.9851122445588408,-0.07115800354712229,1.3523724036694815,2.1014147896343323,0.40057087771833133,0.8105494581684041,0.11118967679448429,-1.0040790179805306,1
-0.2031462993748424,-2.1827208092859385,0.667401314949659,0.20318820053486955,-2.5504836415727623,-1.541220255008334,0.17856101297327162,1.863149631700426,1.914547076472668,0.9304658704299764,0.36379313983465866,0.822941489875685,0.9709919754568944,0.5269892687930774,-0.19339698412475392,-1.0425231625109546,-0.7844688704080204,-0.06032463727473773,-0.810077622272011,-1.4647624188822344,-0.4239880908319933,0.2819689473244548,0.18402982556101746,-1.3935671711746853,0.9222077900814304,-0.06459673393833801,0.2854806070708298,0.8003966814839276,-0.28572577889070516,0.9642063920003069,-0.020187577833698036,-0.44077835240490926,-1.6468095838250099,0.8730290793006171,-0.07186582062592695,-0.6413398042360896,0.5205061773588893,0.3404938668491391,0.14916865845568744,0.9961369896475412,-1.8240630895925054,-0.6703331809371537,-0.45490896829224126,-1.5108758472707449,-0.8281596323043374,-0.5577045612897141,-0.6579869392032459,-2.4950768950775446,-1.6272962887286408,0.27095743072457534,-0.832510179636241,-0.37303725175470603,1.4240580148331061,1.7866444138516648,-0.478534574668434,1.6533263392859523,-0.9983610615564386,0.5502057224973675,1.80434866811523,0.21483910860835492,-0.5503952725622299,-0.7843166182182019,0.382330128753197,0.616455925826254,-1.0040790179805306,1
0.7996781121799735,-0.6776574946563768,1.0436303842919432,0.48335588136497126,-0.3104644869929348,-0.05734910087199492,-0.24407280183896204,0.7386314673052613,-0.4007657219661172,-2.8221973090886268,-1.1255501382513322,-0.0486091476635381,-0.1508519897977262,0.9085653722506256,-1.426949907257182,-2.7588856578846754,0.3622779568107241,1.7876775366102275,1.0297911004022182,0.7951386754778371,0.11812207342291915,-0.45779591839268446,1.8924002062235536,1.9985336482182814,-1.1566476804161665,-1.336600739974812,-0.8448454893152254,-0.6511040997336273,0.8444908144583486,0.33080862329317173,-0.41445207607215023,-0.44077835240490926,-1.4281729771165927,0.5576656338366586,0.3058524777815185,0.22514776897703448,1.5864980563822662,0.29257588448503363,0.5836664460030606,0.34995694009760797,1.9171983368705119,1.539205095833032,0.28884430374640024,-0.08895930046601501,0.09538934161872194,-0.36388541484383324,-0.22979223404803817,0.38118258393132287,0.13045420191470253,0.5907731035811249,-0.08921980191455092,1.6042182491773354,0.3690034242415801,-0.7267215826475336,-0.04956979667370536,0.373826028210643,-0.8944608101440947,-3.134557398437533,-1.5715633408770044,-1.2070775102180535,0.3114429976516528,1.2892364996707313,-0.04588920066201017,-0.6467096967531702,-1.0040790179805306,1
-0.10286385821936081,-1.2796828205082014,-1.2137440317617616,-2.318320926936046,-2.5504836415727623,-0.7753512722282881,-1.3006573388695462,-1.5104048614850676,-1.6636636120236366,-0.633143787702775,0.7361289593561564,1.6944921274149083,0.5750470465434989,0.0023221265389484266,0.8345637851522694,2.390201828236487,-0.47171973571199916,1.4796771742960666,0.29384361133252657,1.6426015858628642,0.11812207342291915,-2.2825492538282948,1.0382150158922856,1.8729002845370606,0.7033808984501043,-0.06459673393833801,0.6622559725328482,1.3809969939709497,0.3791075113146206,0.28208571800800747,-0.41445207607215023,-0.9491991468199958,-0.007035033511882471,1.8191194156924926,-0.07186582062592695,-1.2189981863781723,0.5871306697978504,0.7238377257619831,0.36641755222937406,2.805441128387354,0.1000142154456178,-1.9329264819486884,0.28884430374640024,1.332957246338715,0.6231316124318989,0.31448159771674955,1.0547918814175852,-0.24409121585321356,1.2290482585667921,-0.36867391498852387,-2.3190909350796214,-1.5028975380015865,-0.1585238710541828,0.07945241622956785,-1.1219817416605269,0.6297260904257048,-0.5827600559070634,-0.3709850577363575,1.0541459994502893,0.7836057561389183,-0.2852142663425737,-1.080538492202335,-0.04588920066201017,-2.5414581306223067,-1.0040790179805306,1
-0.5039936228412872,0.22538049412136021,-0.8375149624194775,-1.1976502036156391,1.8636717512757215,0.8042535047555569,0.6011948277855053,0.3637920791735398,-0.4007657219661172,-2.1967534458355265,-1.8702217772943277,-1.7917104227419844,1.3669369043702897,1.0039593981150128,0.8345637851522694,-0.6747311992165859,2.447272188117532,0.8636764496677449,-0.810077622272011,-0.6172995084972076,1.066814860869016,1.07105147075607,0.18402982556101746,0.9934667387685135,-0.2813401138908626,0.8894062705890176,2.54613279984294,1.6712971502144607,0.645040827396751,-1.2283243458320843,-0.020187577833698036,-0.44077835240490926,-0.22567164022029945,-0.38842470255521694,0.6835707761889639,0.8028061511191171,-1.6781020731268252,-1.5283074453509753,-0.719826916639059,-0.037751089632352,-0.00687896816761127,-0.35468485568426994,-0.45490896829224126,-0.373342609826961,0.6231316124318989,0.5567555307741004,0.19840247110716958,-0.3691459758101209,-0.7484210434069692,-0.36867391498852387,-1.204155368497086,-1.5028975380015865,0.5668261599774912,0.4114064157671979,0.8083597593157519,-0.5218241895420735,-1.5178623186181577,-0.6780486511475992,-0.8213606722120632,-0.6383108626874902,-0.02003326012291751,0.6474224393717758,0.8105494581684041,0.7427724880841964,-1.0040790179805306,1
-0.0025814170638792083,-0.978670157582289,-2.718660309130898,-2.5984886077661478,1.3366084207863504,2.383858281739402,0.38987792037938845,-0.6357796225110509,-0.5060072128042439,-1.5713095825824257,-0.38087849920833683,-0.33912602684327914,0.443065403572367,1.528626540369142,-0.6045812918355633,-1.4103151258053233,-0.36747002414665875,0.8636764496677449,1.0297911004022182,0.23016340188781925,-2.253609895192323,-1.00029015325192,-0.4566090671874336,0.4909332840436296,-0.2813401138908626,-0.38259773544745657,1.0390313379948666,1.0906968377274386,-1.881325675383487,-1.0821556299765915,1.951134913358563,1.0844840308403505,0.320919876550743,-0.38842470255521694,0.3058524777815185,0.8028061511191171,1.453249071504344,0.3884118492132446,-0.719826916639059,-0.6839311391822852,-0.11377215178084034,-0.9859815061900373,-1.1986622403308826,-1.2264925379097988,1.8765195056131938,1.0897581835002728,-0.015694881470434317,-0.49420073576702817,-0.0892646094157154,1.230404449294224,1.0257157646679842,1.0392881060538948,-1.279519373557679,0.07945241622956785,-0.478534574668434,0.8856261526407666,0.9757437152780942,-0.9851122445588408,-2.3217660095419452,-1.7758441577486168,-0.21891901478765968,0.40057087771833133,0.1682204640455934,0.11118967679448429,-1.0040790179805306,1
-1.1056882697741768,-0.6776574946563768,0.2911722456073749,-0.0769794802952322,-0.3104644869929348,1.18718799614558,0.38987792037938845,-0.011047308958181679,1.072615149767655,0.3050220071768759,-0.008542679686839066,-1.2106766643825022,0.7730195110001966,0.05001913947114196,0.6289716312968647,-0.5521338781184629,-0.36747002414665875,0.24767572503942314,1.0297911004022182,0.23016340188781925,-0.2884605497682652,0.2819689473244548,0.18402982556101746,0.23966655668118766,-0.8284073429691776,-0.7005987369565752,-0.8448454893152254,-1.2317044122206493,-0.15275912084964005,0.18463990743767894,-0.41445207607215023,-0.9491991468199958,-0.11635333686609098,0.8730290793006171,0.6835707761889639,1.6692937243322412,-1.411604103370981,-0.6178657804329708,-0.719826916639059,-0.2962231094523253,-0.00687896816761127,-0.6703331809371537,-0.0830323322729205,0.19542400889493097,1.4807128025033112,0.1691172378823389,1.268889233995189,0.38118258393132287,-2.5061715340503126,-0.6884895878450735,-0.08921980191455092,0.19189289136873436,-0.026642047230242084,0.6010944155029865,-0.04956979667370536,-1.41747440729479,0.9757437152780942,0.5502057224973675,0.3039433307853482,-0.6383108626874902,-0.5503952725622299,-0.43872443190337973,0.8105494581684041,0.9954056126000812,-1.0040790179805306,1
-0.10286385821936081,0.22538049412136021,0.2911722456073749,-0.0769794802952322,0.28248175980760787,0.5649194476367925,-0.24407280183896204,-2.2600836377485107,1.4935811131201615,-0.007699924449674426,0.36379313983465866,0.532424610695944,0.11311129614453745,-0.1407689122576322,-0.6045812918355633,0.4286446906665204,0.7792768030720858,1.1716768119819059,1.0297911004022182,1.925089222657873,0.38917715555037535,-0.26052528753478066,-0.2430627696046166,1.1191001024497345,0.48455400681877836,-1.0185997384656937,-1.2216208547772438,-0.6511040997336273,0.8444908144583486,0.37953152857833594,0.7683414186432063,0.44895803782149224,0.10228326984232602,-0.38842470255521694,-1.5827390142557085,-1.2189981863781723,0.3872571924809672,1.969705267228726,-0.5025780228653725,-0.5546951292722986,-0.9689176206866729,-0.35468485568426994,1.0325975757850419,0.47980731825587697,-1.883644173930691,-1.6237098667420584,-0.015694881470434317,-0.3691459758101209,0.35017301324512046,-0.6884895878450735,0.6540705758071392,0.19189289136873436,-0.2904056948781236,-0.537033582911745,-0.9074993526631625,-0.13797409621948073,-0.8944608101440947,1.471396502731093,0.3039433307853482,-0.6383108626874902,-0.8155762787818861,-1.080538492202335,-0.6882181947848208,0.7427724880841964,-1.0040790179805306,1
2.8053269352896057,-0.3766448317304645,-1.2137440317617616,-1.4778178844457408,1.6660230023422073,0.6127862590605454,-0.032755894432845205,2.2379890198321473,-0.9269731761567503,-0.9458657193293253,0.7361289593561564,1.4039752482351673,1.7628818332836853,0.05001913947114196,0.8345637851522694,-0.3069392359222171,0.15377853368004327,0.555676087353584,-0.07413013320231926,0.5126510386828282,1.066814860869016,1.07105147075607,-0.8837016623530678,-0.6397669890873593,-0.06251322225953661,-0.7005987369565752,0.2854806070708298,-0.9414042559771383,-1.0835257271370962,-1.374493061687577,0.5712091695239802,0.32185283921772057,-1.7561278871792183,-0.38842470255521694,-1.960457312663154,-0.930168995307131,2.0528695034549935,0.5321657963055612,-1.371573597960119,-1.9762912382821516,0.9551596843514503,1.2235567705801484,-0.45490896829224126,-0.9421092285488529,-0.498320713046102,0.07220766465939851,-1.7284737020912653,1.256565903629674,1.2290482585667921,0.27095743072457534,-0.832510179636241,-1.2204324664398665,-2.0048694045893534,-0.39476758310990356,0.16491259232365896,0.11792596599558111,-2.7646653355662836,-1.599239431381324,1.4292473337827598,1.6367557274347633,-0.02003326012291751,-0.3893541195726908,0.1682204640455934,-1.2782925080428824,-1.0040790179805306,1
1.9027849648902713,1.128418482899097,0.2911722456073749,-0.0769794802952322,1.8636717512757215,0.2777185790942753,1.023828642597739,1.6132567062792782,-0.19028274028986403,-0.9458657193293253,-1.49788595777283,-0.6296429060230202,2.3567992266537785,1.8625056308944967,1.2457480928630789,-0.06174459372597124,-0.68021915884268,-1.908326811159703,-0.07413013320231926,0.5126510386828282,0.6602322376778316,-0.06325465667687682,-0.4566090671874336,-0.3885002617249173,-1.8131283553101445,2.1614102766254915,1.0390313379948666,0.21979636899690563,-0.5516590949728355,0.18463990743767894,0.37407692040475415,1.0844840308403505,-0.33498994357450795,0.5576656338366586,-0.07186582062592695,-0.930168995307131,0.5871306697978504,0.6280017610337721,-0.06808023531799916,0.2207209301876213,1.2758392351911374,-0.6703331809371537,-0.8267856043115619,0.47980731825587697,-0.03654622608457227,0.5567555307741004,0.6265971762623773,-0.11903645589630628,-1.407577477398223,-0.04885824213197427,-0.46086499077539594,-1.5028975380015865,0.17118068850566903,-0.537033582911745,-2.1943936866473486,-0.13797409621948073,-0.16715905025768804,0.5502057224973675,-0.07115800354712229,1.6367557274347633,-0.2852142663425737,-0.290613494911313,-0.2599988653696137,0.36382280131036915,-1.0040790179805306,1
0.7996781121799735,0.8274058199731849,-0.4612858930771934,-0.0769794802952322,1.600140086031036,0.7563866933318041,-0.4553897092450789,0.23884561646296598,-1.6636636120236366,-1.884031514208976,-1.49788595777283,-1.5011935435622432,-0.1508519897977262,0.5269892687930774,0.6289716312968647,-0.42953655702034005,-1.3057174282347226,0.24767572503942314,-0.44210387773716514,-0.6172995084972076,0.9312873198052878,0.03538065875207508,0.6111224207266516,-0.011600170681254319,2.5634094773163754,1.843409275116373,-0.09129475839118857,-0.6511040997336273,-0.08627579182910748,0.18463990743767894,0.37407692040475415,1.0844840308403505,-1.3188546737623843,-1.0191515934831339,-0.07186582062592695,-0.06368142209400689,-0.8786081638592926,0.5800837786696666,-0.2853291290916858,0.2207209301876213,-0.3275585190072985,-0.03903653043138628,1.0325975757850419,1.048573936977769,1.0189383155417815,0.7990294638314515,0.19840247110716958,-0.49420073576702817,0.5698918245755383,0.27095743072457534,1.3973609535288292,0.4743579629304545,-2.0048694045893534,-1.4854735815906879,0.5938773703183876,0.6297260904257048,0.040641452566999636,-0.6780486511475992,-0.8213606722120632,-1.2070775102180535,1.3058717709753636,0.7461630640331535,0.5964397934608006,0.616455925826254,-1.0040790179805306,1
0.09770102409160239,-1.2796828205082014,0.2911722456073749,0.20318820053486955,-0.4422303196152776,-0.7274844608045353,-0.24407280183896204,2.9876677960955904,-2.9265615020811557,0.6177439388034262,0.36379313983465866,0.24190773151620296,-0.1508519897977262,-0.18846592518982574,-0.3989891379801586,-1.0425231625109546,-0.7844688704080204,-2.8323278981021858,-1.5460251113417025,-0.6172995084972076,1.4733974840602002,1.219004443899498,0.6111224207266516,-0.3885002617249173,1.2504481275284194,-0.38259773544745657,-1.2216208547772438,-1.5220045684641603,0.312624182294088,-0.3025891454139635,-0.6115843251913763,-1.7118303384426257,-0.772263156991342,2.1344828611564512,2.1944439698187455,3.1134396796874477,-0.8786081638592926,-1.4324714806227643,0.8009153397767472,2.546969108567381,-1.8240630895925054,-0.03903653043138628,0.660720939765721,-0.08895930046601501,-0.6302562807493961,-1.3814359336847075,-0.22979223404803817,-0.11903645589630628,-0.7484210434069692,0.9105887764376744,-0.832510179636241,-0.6555023233164262,1.2921761910091654,0.9330484150406165,0.5938773703183876,0.5017760593181739,-0.6866603073194072,-1.599239431381324,0.3039433307853482,-0.06954421515692674,0.7755097585360512,0.3018302530569536,-0.6882181947848208,-0.7730262590111127,-1.0040790179805306,1
2.8053269352896057,1.7304438087509217,1.4198594536342273,0.20318820053486955,-0.7716449011711346,-0.29668315799075934,-0.8780235240573125,-0.8856725479321985,-0.4007657219661172,-1.5713095825824257,-1.8702217772943277,-0.9201597852027612,0.047120474658971526,0.38389822999649675,0.42337947744146004,0.9190339750590121,1.1962756493334474,-0.06032463727473773,-0.07413013320231926,-0.05232423490718969,0.38917715555037535,0.4299219204678827,-0.6701553647702506,-0.5141336254061384,-1.4848880178631556,-0.7005987369565752,1.4158067034568849,1.9615973064579717,0.9774574724994138,-0.10769752427330653,0.7683414186432063,-0.5678835510086809,-0.22567164022029945,0.24230218837270007,-1.205020715848263,0.22514776897703448,-1.0118571487372148,-0.18660393915602136,-0.719826916639059,0.2207209301876213,-0.3275585190072985,-0.6703331809371537,0.660720939765721,0.19542400889493097,-0.498320713046102,-0.1700662683979525,0.19840247110716958,0.6312921038451375,-3.0554685623763573,-0.6884895878450735,-0.832510179636241,-0.9379673948781463,1.4899989267450764,1.1227364147764052,-0.2640521856710697,-0.26592412732701165,0.8718434638657504,-0.3709850577363575,-1.5715633408770044,-1.4914608339833353,-1.2796430396662846,0.20308962839557582,-0.2599988653696137,-1.783558757074652,-1.0040790179805306,1
-0.9051233874632136,0.8274058199731849,0.2911722456073749,0.20318820053486955,-1.5622398969051916,-0.7274844608045353,-0.6667066166511957,-1.0106190106427722,1.2830981314439083,-0.007699924449674426,-0.008542679686839066,-0.0486091476635381,2.3567992266537785,0.7177773205218516,0.42337947744146004,0.3060473695683975,-0.8887185819733608,-0.6763253619030594,-1.5460251113417025,-0.3348118717021986,0.7279960082096957,1.219004443899498,-3.232710935764055,-0.5141336254061384,-0.8284073429691776,0.571405269079899,1.4158067034568849,1.6712971502144607,0.17965752425302284,-0.35131205069912774,-0.21731982695292412,-1.2034095440275392,-0.007035033511882471,-0.38842470255521694,-0.4495841190333723,-0.6413398042360896,-0.14573874703072118,0.005067990300400638,0.36641755222937406,0.09148492027763465,-0.6482380698469856,-0.9859815061900373,-0.8267856043115619,0.19542400889493097,-0.03654622608457227,0.7505746772199813,-0.22979223404803817,-0.24409121585321356,0.35017301324512046,0.9105887764376744,1.3973609535288292,1.321753177615615,1.4240580148331061,-0.2999235832420093,0.16491259232365896,-2.057224562832445,0.5601427096287188,0.8572693159086093,-0.07115800354712229,0.21483910860835492,-2.141481309880167,-0.3893541195726908,0.1682204640455934,0.2375062390524267,-1.0040790179805306,1
-0.5039936228412872,-0.978670157582289,-0.4612858930771934,-0.0769794802952322,-0.11281573805942054,-0.29668315799075934,0.38987792037938845,0.23884561646296598,-0.6112487036423704,-0.9458657193293253,-2.242557596815826,-1.7917104227419844,1.5649093688269875,1.7671116050301094,0.42337947744146004,-0.3069392359222171,1.300525360898788,1.4796771742960666,1.76573858947191,0.5126510386828282,-2.727956288915371,-2.134596280684867,-1.0972479599358849,-0.13723353436247532,0.48455400681877836,0.571405269079899,1.4158067034568849,1.3809969939709497,-0.21924244987017263,-0.6436494824101132,-0.020187577833698036,0.5760632364252639,0.4302381799049515,0.5576656338366586,1.4390073730038546,1.3804645332611998,0.3206327000420061,-0.5699477980688653,-0.719826916639059,-1.0716391689122453,-0.6482380698469856,-1.3016298314429209,-0.0830323322729205,-0.9421092285488529,0.49119604472860456,0.6052103173855706,1.0547918814175852,1.1315111436727667,-0.19912401508092437,-0.36867391498852387,-0.832510179636241,-0.09057218019298581,0.5008852480655209,0.6485164154369336,-0.478534574668434,-0.7777242517571354,-0.8944608101440947,-0.6780486511475992,-0.07115800354712229,-1.4914608339833353,1.1732812678655355,0.2524599407262647,-0.6882181947848208,-0.6467096967531702,-1.0040790179805306,1
0.197983465247084,-0.6776574946563768,-0.8375149624194775,-0.357147161125334,-0.37634740330410615,0.373452201941781,-0.032755894432845205,-1.135565473353346,-0.4007657219661172,-0.3204218560762247,-1.49788595777283,-1.5011935435622432,-0.2828336327688581,0.24080719119991614,-0.3989891379801586,-0.06174459372597124,1.092025937768107,0.555676087353584,0.6618173558673723,1.360113949067855,0.7957597787415597,-0.3098429452492566,0.18402982556101746,0.36529992036240866,-0.8284073429691776,0.571405269079899,-0.09129475839118857,-1.2317044122206493,-0.01979246280857489,-0.205143334843635,0.5712091695239802,0.0676424420101773,0.758193089967577,0.24230218837270007,1.4390073730038546,1.6692937243322412,-1.411604103370981,-0.6657837627970764,1.0181642335504337,-0.16698709954233865,0.42069376628530497,-0.35468485568426994,-1.5705388763502035,-0.6577259191879069,2.008455073316488,1.3320321165576237,0.41249982368477345,0.881401623758952,-0.9681398547373872,-0.36867391498852387,-0.832510179636241,-1.2204324664398665,-0.7519920782619162,0.4114064157671979,-0.6930169636657983,-0.010024065111949814,-0.5827600559070634,1.164332909319851,0.3039433307853482,-0.3539275389222084,-0.4178047694524018,-0.5868353688954464,0.8105494581684041,0.616455925826254,-1.0040790179805306,1
-0.0025814170638792083,-0.0756321688045521,-0.08505682373490923,-0.9174825227855375,0.7436621739858078,0.8042535047555569,-0.4553897092450789,-0.13599377166875554,0.2306832230626424,-0.633143787702775,-0.38087849920833683,0.532424610695944,1.0369827969424603,0.47929225586088386,0.012195169730650749,-0.5521338781184629,0.9877762262027666,-0.3683249995888986,-0.44210387773716514,-0.05232423490718969,-0.2884605497682652,1.1203691284705461,-0.4566090671874336,-0.2628668980436963,-1.9225418011258073,-0.7005987369565752,0.6622559725328482,0.21979636899690563,-1.8148423463629546,-2.0078908303947123,-0.41445207607215023,0.0676424420101773,-0.007035033511882471,2.1344828611564512,2.572162268226191,2.5357812975453653,0.5871306697978504,-0.6657837627970764,1.0181642335504337,-0.037751089632352,1.1689460515779084,0.9079084453272648,0.660720939765721,0.19542400889493097,-0.3004173614911607,-0.31543062823236306,0.6265971762623773,0.38118258393132287,-0.0892646094157154,-0.6884895878450735,-1.204155368497086,-0.9379673948781463,0.8965307195373431,0.6010944155029865,-0.2640521856710697,-0.26592412732701165,1.3913447209274696,-0.3709850577363575,0.3039433307853482,0.4992224323736366,-0.4178047694524018,0.3018302530569536,-1.116437524200028,-0.14144344772140055,-1.0040790179805306,1
-1.807665357862548,-1.5806954834341138,-1.96620217044633,-1.4778178844457408,1.5342571697198646,1.4743888646880974,-0.24407280183896204,-1.135565473353346,0.9673736589295285,-0.007699924449674426,-1.1255501382513322,-0.6296429060230202,-0.2828336327688581,-0.42695098985079344,0.21778732358605543,1.041631296157135,-0.68021915884268,0.8636764496677449,2.1337123340067556,1.6426015858628642,-1.237153337214362,-1.937325649826963,-0.8837016623530678,0.7422000114060716,1.2504481275284194,0.2534042675707805,-1.598396220239262,-1.2317044122206493,2.041190736827935,1.597604160707442,1.3597381660008845,-0.8220939482162242,0.10228326984232602,-0.07306125709125844,-0.8273024174408177,-0.06368142209400689,1.386624579065383,0.6759197433978776,-0.06808023531799916,-1.0716391689122453,-0.2206653353940694,-0.03903653043138628,1.0325975757850419,-0.08895930046601501,-2.411386444743868,-2.01134815963382,-0.44388958662564204,1.0064563837158593,0.2403136075799115,-0.04885824213197427,-0.832510179636241,-0.37303725175470603,-0.4222875187020643,0.31656241589930356,0.16491259232365896,2.037176432608545,0.35234220680403117,-0.3709850577363575,-0.8213606722120632,-0.3539275389222084,0.4440335007614809,0.3018302530569536,-3.0434245065684604,0.11118967679448429,-1.0040790179805306,1
1.2008078768019,2.031456471676834,1.0436303842919432,1.0436912430251748,-0.4422303196152776,0.32558539051802815,1.8690962722222064,0.23884561646296598,-0.8217316853186236,0.6177439388034262,0.36379313983465866,-0.9201597852027612,0.11311129614453745,-0.04537488639324511,0.21778732358605543,0.5512420117646433,-1.3057174282347226,-0.06032463727473773,1.0297911004022182,0.23016340188781925,-0.8305707140231776,0.08469831646655104,0.6111224207266516,1.6216335571746185,0.8127943442657674,-0.7005987369565752,0.2854806070708298,1.6712971502144607,1.575807433684207,0.33080862329317173,0.37407692040475415,1.0844840308403505,-1.6468095838250099,-0.38842470255521694,1.0612890745964094,0.8028061511191171,-0.6787346865424095,-0.23452192152012685,0.36641755222937406,-0.8131671490922718,-1.6102767223660472,0.2766117948214974,0.660720939765721,0.47980731825587697,0.22732490932201616,0.07220766465939851,2.3393759968832084,-1.369584055465379,-0.19912401508092437,0.9105887764376744,0.2824253869462941,-1.2204324664398665,-1.279519373557679,-0.48961158297779783,-1.1219817416605269,-1.0336243139721972,0.9757437152780942,-0.9851122445588408,-1.5715633408770044,-0.6383108626874902,0.37773824920656685,0.7955333763638424,0.382330128753197,1.3743552993739085,-1.0040790179805306,1
0.3985483475580472,0.8274058199731849,0.2911722456073749,-1.1976502036156391,-0.9034107337934774,-1.2540193864658171,-0.032755894432845205,0.48873854188411364,-0.19028274028986403,-0.007699924449674426,0.7361289593561564,1.4039752482351673,-0.1508519897977262,-0.1407689122576322,-0.19339698412475392,0.6738393328627662,-0.47171973571199916,-0.9843257242172203,-1.9139988558765482,-0.6172995084972076,1.7444525661876564,0.8737808398981664,0.8246687183094685,-0.3885002617249173,-1.0472342346005037,-0.7005987369565752,0.2854806070708298,-0.07050378724660536,0.17965752425302284,0.5257002444338287,-0.020187577833698036,-0.44077835240490926,0.10228326984232602,1.1883925247645757,-0.07186582062592695,-0.3525106131650482,-2.61084496727228,-0.13868595679191587,-0.2853291290916858,0.7376649698275679,1.3827324188043666,-0.35468485568426994,-1.1986622403308826,-0.6577259191879069,1.1508738832450758,0.2660268111052793,-0.6579869392032459,0.881401623758952,-2.1765933170546856,0.27095743072457534,2.140651331250519,1.321753177615615,-1.3454602854696496,-1.9122715809962123,-0.04956979667370536,0.24587599710311206,-0.3749595530823757,-0.3709850577363575,1.0541459994502893,0.4992224323736366,-0.9481667818917142,-0.290613494911313,-0.47410853007721726,-1.6572421948167095,-1.0040790179805306,1
-0.9051233874632136,-0.6776574946563768,0.2911722456073749,0.48335588136497126,-0.5739961522376203,-0.24881634656700644,-0.032755894432845205,-0.3858866970899032,0.6516491864151488,-0.3204218560762247,-0.7532143187298346,-1.7917104227419844,-0.6127877401966876,0.5746862817252709,-0.19339698412475392,-0.7973285203147088,-0.8887185819733608,-0.6763253619030594,0.29384361133252657,-0.6172995084972076,-0.6272794024275854,0.18333363189550295,-0.02951647202179956,-1.0166670801310222,-1.4848880178631556,-1.0185997384656937,-0.09129475839118857,0.5100965252404166,0.645040827396751,0.7205918655744856,-0.41445207607215023,-0.44077835240490926,0.10228326984232602,0.5576656338366586,0.3058524777815185,0.22514776897703448,0.5871306697978504,-0.28243990388423235,0.36641755222937406,0.6084289599175813,0.8482665007382212,1.2235567705801484,-0.45490896829224126,0.764190627616823,0.49119604472860456,-0.12161148178648229,-0.015694881470434317,-0.24409121585321356,-0.19912401508092437,0.9105887764376744,2.883941708972209,1.8866833207390554,-1.6751648450295014,-1.9122715809962123,-1.3364641306578913,0.7576761215332357,-0.47885980449471954,-0.6780486511475992,1.0541459994502893,2.4899056987306087,0.3114429976516528,-0.19187287024993527,0.382330128753197,0.2375062390524267,-1.0040790179805306,1
-0.30342874053032404,-0.0756321688045521,-1.5899731011040459,-1.4778178844457408,0.08483301087409369,0.5170526362130397,1.023828642597739,-0.011047308958181679,1.072615149767655,0.9304658704299764,-0.38087849920833683,0.532424610695944,-1.7346317054513083,0.5269892687930774,-0.3989891379801586,-0.3069392359222171,-0.5759694472773396,0.555676087353584,3.605607312146139,3.055039769837909,-0.22069677923640113,-1.5921020458256314,-0.8837016623530678,-2.273000716943232,0.7033808984501043,1.5254082736072545,1.0390313379948666,0.21979636899690563,-0.8840757400754984,-0.7410952929804417,0.17694467128552804,1.8471152224629803,-0.007035033511882471,-0.38842470255521694,-0.4495841190333723,1.3804645332611998,0.9868776244316166,0.3404938668491391,2.7561553837399266,0.7376649698275679,-0.11377215178084034,-1.3016298314429209,-0.45490896829224126,-0.08895930046601501,-1.157998551562573,0.4113911709396899,0.19840247110716958,0.2561278239744156,-1.7371556943938498,0.5907731035811249,-1.5758005573579312,-1.7853626095633066,1.0284125433612838,0.8856264151066694,-0.2640521856710697,-0.6497742206496046,2.845948240700283,0.5502057224973675,0.3039433307853482,0.7836057561389183,0.046261991431996545,0.5980521270410869,0.8105494581684041,-0.39407657223728537,-1.0040790179805306,1
0.8999605533354552,0.22538049412136021,-0.4612858930771934,-0.357147161125334,0.3483646761187793,1.3307884304168387,0.17856101297327162,-0.3858866970899032,0.12544173222451577,-1.2585876509558755,-1.49788595777283,-0.6296429060230202,2.4887808696249105,0.43159524292869034,-0.3989891379801586,-0.42953655702034005,-2.660963678584148,-0.9843257242172203,0.6618173558673723,0.5126510386828282,-1.237153337214362,-0.8030195223940161,-0.4566090671874336,-0.011600170681254319,-0.2813401138908626,-1.0185997384656937,-0.46807012385320695,-0.36080394349011635,0.17965752425302284,0.6718689602893214,-0.020187577833698036,-0.31367315380113764,2.0700127302180786,0.8730290793006171,-0.8273024174408177,-0.6413398042360896,-0.7453591789813706,0.05298597266450614,0.36641755222937406,0.9961369896475412,-1.28959717152636,-0.03903653043138628,0.660720939765721,0.47980731825587697,0.9529705316901343,0.4598459575511601,-0.22979223404803817,-1.1194745355515645,-1.297718071733014,-1.6479366064147223,-0.832510179636241,-0.37303725175470603,0.8305898076253727,1.5495344141819292,0.16491259232365896,-0.13797409621948073,-1.31006181579347,0.5502057224973675,-1.946664675209475,-1.4914608339833353,-1.2796430396662846,-1.5248713031785353,-1.116437524200028,-0.6467096967531702,-1.0040790179805306,1
-1.0054058286186953,-0.978670157582289,-0.8375149624194775,-0.9174825227855375,0.15071592718526508,-0.3445499694145122,0.6011948277855053,0.988524392726409,0.6516491864151488,0.6177439388034262,1.480800598399152,0.24190773151620296,-0.348824454254424,0.19311017826772262,-0.3989891379801586,-0.06174459372597124,0.4665276683760645,-0.6763253619030594,-1.5460251113417025,-1.7472500556772432,-0.017405467640808952,0.38060426275340675,-0.02951647202179956,0.36529992036240866,0.48455400681877836,0.2534042675707805,-0.09129475839118857,-0.07050378724660536,0.11317419523249025,0.5744231497189929,0.37407692040475415,-0.6949887496124525,0.4302381799049515,0.5576656338366586,0.3058524777815185,0.22514776897703448,-1.278355118493059,-1.4324714806227643,-1.1543247041864322,0.9961369896475412,-1.5033835387528183,-1.3016298314429209,-2.314292148388845,1.048573936977769,0.755067180135193,1.816579982672326,1.0547918814175852,-1.1194745355515645,0.8994700415711652,0.9105887764376744,1.3973609535288292,0.7568230344921747,-1.279519373557679,-0.9164095823833222,-2.1943936866473486,0.373826028210643,0.2484419553916873,0.8572693159086093,1.0541459994502893,1.3523724036694815,-1.5448240458859408,-2.1173150511468015,-0.47410853007721726,-0.015126885463458136,-1.0040790179805306,1
2.8053269352896057,-0.978670157582289,-1.5899731011040459,-0.357147161125334,-0.4422303196152776,0.6127862590605454,-0.24407280183896204,1.113470855436983,1.4935811131201615,2.181353596936178,1.480800598399152,1.9850090065946493,2.3567992266537785,0.5269892687930774,0.42337947744146004,0.6738393328627662,1.1962756493334474,0.555676087353584,-0.44210387773716514,0.7951386754778371,-0.7628069434913135,-0.45779591839268446,-0.02951647202179956,0.7422000114060716,0.8127943442657674,-0.38259773544745657,-0.46807012385320695,-0.6511040997336273,1.4428407756431418,1.0616522025706354,0.7683414186432063,-0.9491991468199958,-0.44430824692871645,1.1883925247645757,1.4390073730038546,-0.3525106131650482,-1.6781020731268252,-0.9532916569817094,-0.719826916639059,-0.5546951292722986,-3.213674476564483,-3.1955197829602233,-0.0830323322729205,-0.08895930046601501,2.4702295602780175,0.31448159771674955,-0.015694881470434317,-1.369584055465379,2.8769393435449264,-0.36867391498852387,-0.08921980191455092,-0.09057218019298581,-1.081696637821768,0.2217184160314093,0.16491259232365896,0.11792596599558111,0.6640429610410626,1.164332909319851,0.3039433307853482,0.21483910860835492,1.1069860163106215,0.9930146256865979,-0.2599988653696137,0.7427724880841964,-1.0040790179805306,1
-1.0054058286186953,-0.978670157582289,0.667401314949659,0.48335588136497126,-0.4422303196152776,-0.3445499694145122,0.8125117351916221,0.3637920791735398,0.335924713900769,0.6177439388034262,-0.38087849920833683,-0.33912602684327914,-1.4046775980234787,-1.428588261426858,-0.6045812918355633,-0.7973285203147088,-1.6184665629307438,-1.292326086531381,-1.1780513668068568,-0.6172995084972076,1.5411612545920643,0.4792395781823587,0.18402982556101746,1.6216335571746185,1.2504481275284194,-0.7005987369565752,-1.9751715857012806,-0.6511040997336273,-0.15275912084964005,1.1590980131409638,-0.21731982695292412,-0.31367315380113764,-1.1002180670539674,0.24230218837270007,1.0612890745964094,1.3804645332611998,-0.47886120922552644,-1.0012096393458148,0.5836664460030606,0.7376649698275679,-1.182703987913131,-1.3016298314429209,-0.8267856043115619,-0.373342609826961,0.755067180135193,1.3320321165576237,0.19840247110716958,-0.9944197755946573,1.668485881227628,0.5907731035811249,-0.46086499077539594,-0.37303725175470603,-0.4222875187020643,-0.15765758344016786,-0.6930169636657983,-0.5218241895420735,-0.6866603073194072,0.5502057224973675,1.0541459994502893,1.0679890799042,-0.48410002100731586,-0.9817978675409574,-0.2599988653696137,0.9954056126000812,-1.0040790179805306,1
-2.2087951224844744,0.5263931570472725,-0.4612858930771934,1.88419428551548,1.600140086031036,-0.39241678083826514,-0.032755894432845205,-1.8852442496167892,2.966961984853934,1.8686316653096275,-0.008542679686839066,-0.6296429060230202,-2.4605307417925335,-0.9516181321049224,-0.6045812918355633,-1.6555097680015691,0.6750270915067453,-0.06032463727473773,-0.44210387773716514,-0.3348118717021986,0.3214133850185113,1.31763975932845,0.3975761231438345,3.1292339213492704,1.7975153566067346,1.5254082736072545,1.7925820689189034,0.21979636899690563,-1.9478090044040197,-1.374493061687577,0.9654736677624324,1.3386944280478936,0.10228326984232602,-0.7037881480191754,-0.4495841190333723,0.22514776897703448,-0.2789877319086433,-0.6178657804329708,0.5836664460030606,0.9961369896475412,-1.5033835387528183,-1.6172781566958048,-1.1986622403308826,0.19542400889493097,1.2168416670967228,1.5743060496149748,-0.6579869392032459,-0.3691459758101209,-0.19912401508092437,3.4691141592900716,-0.08921980191455092,-0.09057218019298581,-1.4773421092935903,-1.0112535822512165,-0.2640521856710697,-0.3938741584345426,-0.790560558731751,-1.9063030247925659,0.6790446651178187,1.3523724036694815,0.2451477460967387,0.548681814710398,0.382330128753197,-0.5203931344952278,-1.0040790179805306,1
0.09770102409160239,0.22538049412136021,0.2911722456073749,-0.357147161125334,0.8095450902969792,0.4691858247892868,-0.8780235240573125,0.3637920791735398,0.020200241386389168,0.3050220071768759,1.480800598399152,0.24190773151620296,-2.4605307417925335,-1.3808912484946643,0.012195169730650749,0.06085272737215167,-1.2014677166693821,-0.9843257242172203,-0.07413013320231926,-0.05232423490718969,0.4569409260822394,0.18333363189550295,-0.6701553647702506,-1.2679338074934643,0.7033808984501043,1.2074072720981361,-0.46807012385320695,-0.9414042559771383,1.9747074078074025,1.8412186871332634,-0.020187577833698036,-0.31367315380113764,-0.11635333686609098,1.8191194156924926,1.8167256714113,1.3804645332611998,0.8536286395536946,0.5321657963055612,1.0181642335504337,3.3223851680273007,0.1000142154456178,-0.35468485568426994,0.660720939765721,0.47980731825587697,-2.345418660892221,-1.2845263604617672,0.41249982368477345,-0.3691459758101209,-1.187858666067805,0.27095743072457534,-0.46086499077539594,0.19189289136873436,0.5008852480655209,0.4114064157671979,-0.478534574668434,-1.1615743450797282,0.040641452566999636,0.5502057224973675,-0.8213606722120632,-0.6383108626874902,0.7092145069811371,0.005608379072820281,0.5964397934608006,0.2375062390524267,-1.0040790179805306,1
-0.40371118168580566,-0.6776574946563768,-1.2137440317617616,-0.6373148419554358,-0.9692936501046487,-0.15308272371950069,0.38987792037938845,-0.510833159800477,0.9673736589295285,-0.633143787702775,-0.7532143187298346,-0.6296429060230202,2.2248175836826465,0.7177773205218516,0.6289716312968647,0.9190339750590121,-1.3057174282347226,-0.6763253619030594,0.29384361133252657,0.23016340188781925,-0.4239880908319933,0.5778748936113106,0.8246687183094685,-0.6397669890873593,-2.3601955843884594,0.2534042675707805,-0.09129475839118857,0.5100965252404166,-0.5516590949728355,0.33080862329317173,-0.8087165743106024,-1.3305147426313106,-3.1772658307839285,-3.542059157194802,0.3058524777815185,0.8028061511191171,-0.2789877319086433,-0.6657837627970764,-0.5025780228653725,-0.5546951292722986,2.8792369893895735,0.9079084453272648,0.28884430374640024,-0.9421092285488529,1.5466805863549584,0.6052103173855706,0.6265971762623773,-1.244529295508472,0.35017301324512046,0.5907731035811249,0.6540705758071392,0.4743579629304545,-1.6751648450295014,-0.4421895830438507,0.5938773703183876,0.8856261526407666,-0.47885980449471954,-0.9851122445588408,-0.8213606722120632,0.21483910860835492,-1.2133477881113706,-0.5374650565647575,-0.04588920066201017,-0.39407657223728537,-1.0040790179805306,1
0.5991132298690104,2.3324691346027464,0.2911722456073749,-0.0769794802952322,1.9954375838980645,0.13411814482301662,0.17856101297327162,1.113470855436983,-1.3479391395092568,0.3050220071768759,1.480800598399152,0.532424610695944,-1.2067051335667809,-1.0470121579693095,0.42337947744146004,0.5512420117646433,-0.05472088945063755,-0.9843257242172203,0.29384361133252657,-0.3348118717021986,2.557617812570025,1.6628633633297816,0.18402982556101746,-1.2679338074934643,0.5939674526344414,2.797412279643729,-0.09129475839118857,-0.07050378724660536,1.3098741176020767,2.2797248346997416,-0.21731982695292412,0.7031684350290355,-0.772263156991342,-0.7037881480191754,1.0612890745964094,1.0916353421901586,-1.9446000428826695,-2.151241216084347,0.36641755222937406,-0.5546951292722986,-0.6482380698469856,-0.6703331809371537,-0.0830323322729205,0.47980731825587697,-0.3004173614911607,-0.12161148178648229,-0.44388958662564204,-1.1194745355515645,0.020594796249493563,-1.3281209335581727,-0.46086499077539594,-0.6555023233164262,0.8965307195373431,-0.06281358357227358,-0.2640521856710697,-0.13797409621948073,-1.1022613129687824,-0.06392146432511579,0.3039433307853482,-0.06954421515692674,-0.48410002100731586,0.10434900373419806,0.1682204640455934,0.8690890503421388,-1.0040790179805306,1
-0.8048409463077321,-0.978670157582289,-0.8375149624194775,-0.9174825227855375,-0.7057619848599631,-1.4454866321608286,-0.24407280183896204,2.9876677960955904,0.020200241386389168,-0.007699924449674426,-0.008542679686839066,1.113458369055426,-1.4046775980234787,-0.5223450157151805,0.42337947744146004,1.2868259383533809,-0.47171973571199916,0.24767572503942314,1.0297911004022182,0.23016340188781925,1.8799801072513846,0.9230984976126424,0.3975761231438345,-0.6397669890873593,1.1410346817127563,1.5254082736072545,1.4158067034568849,0.21979636899690563,-1.6153923593013568,-2.0078908303947123,-0.020187577833698036,0.32185283921772057,-0.8815814603455504,-0.7037881480191754,-0.8273024174408177,-1.5078273774492137,1.253375594187461,2.35304912614157,-0.2853291290916858,-1.3301111887322186,0.527586949898534,-0.9859815061900373,-0.8267856043115619,-0.08895930046601501,1.6786161540582525,0.31448159771674955,-0.015694881470434317,0.6312921038451375,2.5473611265492995,1.230404449294224,0.2824253869462941,0.19189289136873436,-0.9498148139978273,-0.8215655825154279,0.16491259232365896,1.2694762459633595,-1.8295630728551893,-0.06392146432511579,1.80434866811523,1.3523724036694815,-1.0807572850015423,-1.228649429194402,1.0246591228760076,1.5006718616318508,-1.0040790179805306,1
2.905609376445087,-0.3766448317304645,-1.5899731011040459,-1.1976502036156391,0.9413109229193221,1.8573233560781206,1.4464624574099725,0.48873854188411364,-1.8741465936998898,0.3050220071768759,0.36379313983465866,0.822941489875685,2.3567992266537785,-0.09307189932543866,0.012195169730650749,-0.6747311992165859,-0.47171973571199916,1.1716768119819059,0.6618173558673723,0.5126510386828282,-2.5924287478516432,-2.035960965255915,-0.4566090671874336,-0.011600170681254319,2.0163422482380606,1.2074072720981361,-0.8448454893152254,-0.9414042559771383,0.7780074854378161,0.9642063920003069,-0.020187577833698036,-0.31367315380113764,-1.2095363704081759,-1.0191515934831339,1.4390073730038546,0.22514776897703448,-0.2789877319086433,0.6280017610337721,-0.2853291290916858,0.4791929500075946,1.0620528679646792,-0.35468485568426994,0.660720939765721,0.47980731825587697,0.49119604472860456,-0.9937976407929459,0.41249982368477345,-0.6192554957239355,-0.4188428264113423,0.9105887764376744,0.6540705758071392,1.321753177615615,-0.4222875187020643,-0.15765758344016786,0.3793949813210233,-0.5218241895420735,-0.790560558731751,-0.6780486511475992,-0.4462593378795927,-0.3539275389222084,0.7092145069811371,0.3018302530569536,0.5964397934608006,0.49013936356831156,-1.0040790179805306,1
0.49883078871352876,0.22538049412136021,-0.08505682373490923,-1.1976502036156391,-0.9692936501046487,-0.29668315799075934,-0.24407280183896204,1.6132567062792782,0.020200241386389168,1.8686316653096275,0.36379313983465866,0.822941489875685,-0.1508519897977262,-0.1407689122576322,-0.6045812918355633,-1.6555097680015691,-1.4099671398000628,-0.3683249995888986,-0.810077622272011,-0.8997871452922166,-1.6437359604055464,-0.3098429452492566,0.6111224207266516,2.2498003755807234,1.4692750191597452,1.2074072720981361,1.7925820689189034,1.6712971502144607,-0.01979246280857489,-1.423215966972741,-1.5972455707875066,-1.4576199412350823,-3.286584134138137,-1.0191515934831339,-1.205020715848263,-0.6413398042360896,-1.278355118493059,0.05298597266450614,0.8009153397767472,-0.16698709954233865,-0.4344517026205275,-1.9329264819486884,-0.8267856043115619,-0.9421092285488529,2.2723262087230762,0.2660268111052793,-0.22979223404803817,0.38118258393132287,0.7896106359059563,0.9105887764376744,-0.832510179636241,-0.37303725175470603,-0.2904056948781236,0.03203041629562071,1.0228421483131163,-1.0336243139721972,2.1186464808138763,-0.06392146432511579,0.3039433307853482,0.21483910860835492,1.3058717709753636,2.276642746284509,0.5964397934608006,1.248038737115966,-1.0040790179805306,1
-1.3062531520851401,0.5263931570472725,0.2911722456073749,0.48335588136497126,-1.1010594827269917,-0.29668315799075934,1.023828642597739,1.2384173181475568,0.6516491864151488,0.6177439388034262,0.7361289593561564,0.532424610695944,-0.5467969187111217,-0.6177390415795676,0.21778732358605543,1.2868259383533809,0.15377853368004327,-0.06032463727473773,-0.07413013320231926,-0.8997871452922166,0.3214133850185113,-0.7537018646795403,-0.2430627696046166,0.11403319299996667,-0.06251322225953661,-0.38259773544745657,-0.46807012385320695,0.5100965252404166,0.5785574983762184,0.8180376761448142,1.5568704151201107,1.0844840308403505,-0.22567164022029945,-0.07306125709125844,-1.205020715848263,-0.3525106131650482,0.9868776244316166,1.3946894788594602,-0.5025780228653725,-0.9424031590022585,-1.28959717152636,-0.35468485568426994,-0.45490896829224126,0.47980731825587697,-0.8281596323043374,0.1691172378823389,0.41249982368477345,-0.86936501563775,1.668485881227628,0.27095743072457534,-1.204155368497086,-1.7853626095633066,-1.4114011973816198,-0.11023558350622073,0.16491259232365896,1.0135761837482975,0.35234220680403117,0.2431421290861259,-0.07115800354712229,0.7836057561389183,-0.616690524117144,-0.8830572428795797,0.1682204640455934,1.7533049861477357,-1.0040790179805306,1
0.197983465247084,-0.978670157582289,-1.5899731011040459,-2.0381532461059444,0.3483646761187793,1.0914543732980742,-0.032755894432845205,0.11389915375239215,-1.0322146669948769,-0.3204218560762247,-1.1255501382513322,-0.0486091476635381,1.3669369043702897,1.719414592097916,-0.3989891379801586,-0.42953655702034005,0.2580282452453837,1.7876775366102275,2.5016860785416015,2.490064496247891,-1.304917107746226,-1.937325649826963,0.6111224207266516,2.2498003755807234,-0.6095804513378517,-0.7005987369565752,-0.46807012385320695,0.5100965252404166,-0.08627579182910748,-0.4487578612694562,-0.8087165743106024,-0.5678835510086809,0.758193089967577,-0.38842470255521694,-0.07186582062592695,0.5139769600480758,-0.9452326562982537,-0.33035788624833784,0.14916865845568744,0.4791929500075946,-1.7171699059792762,-1.3016298314429209,-2.314292148388845,-2.0796424659926367,1.9424872894648408,1.865034769283796,0.19840247110716958,-0.9944197755946573,0.8994700415711652,0.5907731035811249,0.6540705758071392,-0.37303725175470603,1.3581171029211356,-0.25250158330806216,-0.2640521856710697,0.11792596599558111,-0.16715905025768804,1.164332909319851,1.80434866811523,-0.06954421515692674,-0.9481667818917142,-0.4880947442340686,-0.2599988653696137,-1.2782925080428824,-1.0040790179805306,1
-0.8048409463077321,-0.6776574946563768,0.2911722456073749,0.763523562195073,-0.24458157068176337,-0.6796176493807824,-0.24407280183896204,-0.8856725479321985,0.7568906772532754,-0.3204218560762247,-0.38087849920833683,-0.0486091476635381,0.31108376060123516,0.19311017826772262,0.8345637851522694,0.7964366539608891,-0.8887185819733608,-2.524327535788025,-1.9139988558765482,-0.05232423490718969,0.5247046966141035,1.0217338130415943,-0.4566090671874336,1.4960001934933975,1.7975153566067346,1.5254082736072545,-0.09129475839118857,-0.07050378724660536,-0.5516590949728355,-0.15642042955847077,0.17694467128552804,0.19474764061394895,1.414102910092828,0.8730290793006171,1.0612890745964094,0.8028061511191171,-0.012489762152799077,-0.042849992063704864,0.14916865845568744,2.805441128387354,-1.5033835387528183,1.2235567705801484,-0.45490896829224126,-0.6577259191879069,0.755067180135193,-0.02470190856354189,-0.22979223404803817,-0.3691459758101209,0.13045420191470253,-3.24701497069747,-0.46086499077539594,-1.7853626095633066,-1.4114011973816198,-0.2999235832420093,-0.04956979667370536,-0.7777242517571354,-0.06325879884534419,-0.06392146432511579,2.1794500024477004,2.2055223749653265,0.9081002616458793,0.15371931606488695,0.1682204640455934,-1.6572421948167095,-1.0040790179805306,1
-0.8048409463077321,-0.978670157582289,0.667401314949659,0.763523562195073,0.15071592718526508,0.32558539051802815,0.38987792037938845,-0.510833159800477,-2.4003540478905228,-1.2585876509558755,-0.7532143187298346,-1.7917104227419844,0.5090562250579329,0.14541316533552906,-0.3989891379801586,-1.2877178047072004,3.0727704575095744,1.7876775366102275,0.29384361133252657,0.23016340188781925,0.11812207342291915,-0.9509724955374439,-0.4566090671874336,0.6165666477248506,3.2198901522103536,0.8894062705890176,0.6622559725328482,0.5100965252404166,0.44559084033515317,0.5744231497189929,0.7683414186432063,0.7031684350290355,-0.772263156991342,-1.3345150389470926,-0.07186582062592695,-0.930168995307131,-0.5454857016644874,-0.09076797442781036,-0.719826916639059,0.2207209301876213,-1.396490355139589,-0.03903653043138628,1.0325975757850419,1.332957246338715,-1.883644173930691,-0.7030689211241247,0.8406945288399812,-0.3691459758101209,-0.8582804490721782,-0.04885824213197427,-0.46086499077539594,-1.2204324664398665,-1.9389284926773829,0.17429641609746213,-0.2640521856710697,0.11792596599558111,-0.16715905025768804,-0.06392146432511579,-0.8213606722120632,-0.9226941864527718,1.769938531859762,-0.290613494911313,0.1682204640455934,0.49013936356831156,-1.0040790179805306,1
0.5991132298690104,1.128418482899097,-1.2137440317617616,-0.6373148419554358,2.4566179980762644,1.18718799614558,0.17856101297327162,-1.0106190106427722,-0.08504124945173744,-2.509475377462077,0.7361289593561564,0.822941489875685,-2.658503206249231,0.670080307589658,-0.19339698412475392,0.6738393328627662,-0.26322031258131834,-0.6763253619030594,-0.44210387773716514,0.5126510386828282,0.6602322376778316,0.134015974181027,-0.6701553647702506,-1.8961006258995692,-0.6095804513378517,-0.7005987369565752,-0.46807012385320695,-0.6511040997336273,-0.41869243693177033,-0.8385411035507702,-0.41445207607215023,0.32185283921772057,0.320919876550743,0.5576656338366586,1.0612890745964094,0.8028061511191171,0.18738371516408406,0.10090395502861164,0.36641755222937406,-0.5546951292722986,1.2758392351911374,1.539205095833032,0.28884430374640024,-0.6577259191879069,0.22732490932201616,0.31448159771674955,0.6265971762623773,-0.49420073576702817,-0.4188428264113423,-1.3281209335581727,-0.46086499077539594,-2.350292752686747,0.3690034242415801,1.4546904143140351,-0.2640521856710697,0.373826028210643,-1.2061615643811263,-0.9851122445588408,-0.4462593378795927,2.77428902249589,0.8418050100909652,0.7461630640331535,0.1682204640455934,-0.14144344772140055,-1.0040790179805306,1
1.3010903179573816,0.22538049412136021,1.4198594536342273,0.20318820053486955,0.15071592718526508,-0.24881634656700644,-0.8780235240573125,-1.2605119360639199,-1.55842212118551,-0.007699924449674426,0.36379313983465866,0.532424610695944,-0.0848611683121603,0.0023221265389484266,0.21778732358605543,0.6738393328627662,-0.8887185819733608,-0.9843257242172203,-0.810077622272011,-0.8997871452922166,1.7444525661876564,2.205357598189017,0.6111224207266516,-0.13723353436247532,0.3751405610031154,2.797412279643729,0.2854806070708298,-0.36080394349011635,-1.282975714198694,-1.8617221145392193,0.37407692040475415,0.5760632364252639,0.53955648325916,-2.5959688208029266,-0.07186582062592695,0.8028061511191171,-2.0112245353216305,-0.33035788624833784,0.14916865845568744,-1.0716391689122453,-1.6102767223660472,0.9079084453272648,1.4044742118043625,0.764190627616823,-1.22396633541422,-0.9937976407929459,-0.8720842917808498,-0.49420073576702817,-1.407577477398223,1.8700357950073232,1.3973609535288292,1.0392881060538948,-1.8070466688534421,-0.868987582449375,-0.478534574668434,-2.185174593939976,2.430347235050908,0.2431421290861259,-1.1964620065445337,-0.06954421515692674,0.3114429976516528,0.15371931606488695,0.382330128753197,0.616455925826254,-1.0040790179805306,1
1.0002429944909368,0.22538049412136021,-1.5899731011040459,-1.7579855652758427,0.5460134250522936,0.038384521975510844,-0.032755894432845205,0.8635779300158352,0.4411662047388956,0.6177439388034262,0.7361289593561564,-0.0486091476635381,0.6410378680290648,1.1470504369115933,0.8345637851522694,0.06085272737215167,-1.2014677166693821,-1.292326086531381,0.29384361133252657,0.5126510386828282,0.5247046966141035,0.134015974181027,-0.6701553647702506,-0.7654003527685803,-1.2660611262318295,-0.38259773544745657,1.0390313379948666,0.5100965252404166,-0.618142423993368,0.1359170021525147,0.17694467128552804,0.44895803782149224,0.4302381799049515,1.1883925247645757,-0.07186582062592695,-0.06368142209400689,0.7870041471147335,0.5800837786696666,0.36641755222937406,-0.037751089632352,-0.00687896816761127,-0.6703331809371537,-0.45490896829224126,0.19542400889493097,0.49119604472860456,-0.07315669517501208,-0.6579869392032459,-0.7443102556808427,-1.187858666067805,-1.3281209335581727,-0.46086499077539594,-0.6555023233164262,0.698707983801432,0.4114064157671979,-0.2640521856710697,-0.6497742206496046,1.183544218102782,0.2431421290861259,-0.4462593378795927,1.3523724036694815,1.3058717709753636,1.1904958750093535,-0.6882181947848208,-1.783558757074652,-1.0040790179805306,1
0.3985483475580472,2.031456471676834,2.5485466616610797,2.1643619663455818,-1.2987082316605059,-0.7753512722282881,-0.4553897092450789,-1.2605119360639199,2.756479003177681,1.8686316653096275,0.36379313983465866,-0.9201597852027612,-2.130576634364704,-0.18846592518982574,0.6289716312968647,2.390201828236487,-1.0972180051040417,-2.8323278981021858,-2.64994634494624,-1.7472500556772432,1.5411612545920643,0.9230984976126424,-0.2430627696046166,0.6165666477248506,2.7822363689477014,2.1614102766254915,1.4158067034568849,2.5421976189449937,-1.3494590432192264,-0.10769752427330653,0.37407692040475415,1.0844840308403505,-1.4281729771165927,-1.649878484411051,-0.07186582062592695,-0.930168995307131,-1.145106133615137,-0.7616197275252874,0.36641755222937406,0.2207209301876213,-0.9689176206866729,1.8548534210859158,0.28884430374640024,1.048573936977769,-0.6302562807493961,-0.5577045612897141,-0.44388958662564204,-2.1199126152068226,-0.19912401508092437,-1.0083052607016232,-0.08921980191455092,-0.37303725175470603,1.2262352790971949,2.4979744128608723,0.5938773703183876,-0.13797409621948073,-0.27105930167003184,-0.9851122445588408,-0.8213606722120632,-0.6383108626874902,0.510328752316395,-0.9324275552102685,0.1682204640455934,0.616455925826254,-1.0040790179805306,1
-0.30342874053032404,1.4294311458250095,0.2911722456073749,0.48335588136497126,-1.2328253153493345,-0.440283592262018,0.38987792037938845,0.23884561646296598,-1.1374561578330036,-0.3204218560762247,0.36379313983465866,0.24190773151620296,0.8390103324857625,0.19311017826772262,-0.3989891379801586,-2.1458990523940606,1.4047750724641284,1.1716768119819059,1.0297911004022182,-0.05232423490718969,-1.9825548130648665,-0.8030195223940161,-0.2430627696046166,1.3703668298121765,0.9222077900814304,-0.7005987369565752,0.2854806070708298,0.21979636899690563,0.8444908144583486,-0.4487578612694562,-0.21731982695292412,-1.2034095440275392,-0.9908997636997589,-1.0191515934831339,-0.07186582062592695,-0.930168995307131,0.9868776244316166,1.1550995670389326,0.8009153397767472,0.4791929500075946,-0.7551312534602147,0.2766117948214974,-0.45490896829224126,-1.2264925379097988,-0.4323529291944549,-0.2669758416208929,-0.8720842917808498,-1.6196935753791937,0.6797512302407472,-0.6884895878450735,0.6540705758071392,0.7568230344921747,-1.0157557259097978,-0.6792995827135864,0.16491259232365896,0.373826028210643,-1.8295630728551893,-1.2921758379700825,-1.1964620065445337,-0.9226941864527718,0.8418050100909652,1.6841989983162424,0.8105494581684041,2.0059381106636205,-1.0040790179805306,1
0.3985483475580472,-0.978670157582289,-1.2137440317617616,-0.357147161125334,1.0071938392304933,0.5649194476367925,0.38987792037938845,-1.2605119360639199,-0.9269731761567503,0.6177439388034262,-0.008542679686839066,0.24190773151620296,-0.21684281128329214,0.5269892687930774,1.6569324005738881,2.0224098649421185,0.049528822114702865,-0.06032463727473773,0.29384361133252657,1.0776263122728462,-0.017405467640808952,0.4792395781823587,0.3975761231438345,0.36529992036240866,-2.1413686927571334,-0.06459673393833801,1.0390313379948666,-0.07050378724660536,-0.9505590690960309,-1.2770472511172484,-0.41445207607215023,-0.31367315380113764,-2.9586292240755117,-1.649878484411051,-0.8273024174408177,-1.2189981863781723,0.45388168491992825,0.10090395502861164,-0.06808023531799916,0.9961369896475412,3.0930233566160314,2.1705017463387994,0.28884430374640024,0.19542400889493097,0.49119604472860456,-0.509249774678244,-0.6579869392032459,-2.24496737516373,0.020594796249493563,0.27095743072457534,1.0257157646679842,-0.09057218019298581,-0.9498148139978273,-0.20507958337411503,-0.04956979667370536,0.7576761215332357,-1.1022613129687824,-0.06392146432511579,-1.1964620065445337,-0.3539275389222084,0.6429192554262231,0.05497869140350917,0.1682204640455934,-0.015126885463458136,-1.0040790179805306,1
0.2982659064025656,1.4294311458250095,1.0436303842919432,1.0436912430251748,-1.2328253153493345,-0.9668185179232998,-1.5119742462756631,-0.6357796225110509,1.2830981314439083,-0.633143787702775,-1.8702217772943277,-1.2106766643825022,0.7730195110001966,0.8131713463862386,0.21778732358605543,-0.5521338781184629,0.049528822114702865,-0.3683249995888986,-1.5460251113417025,0.5126510386828282,1.202342401932744,0.4792395781823587,0.18402982556101746,0.23966655668118766,-1.9225418011258073,-1.336600739974812,-1.598396220239262,0.21979636899690563,2.307124052910065,1.9873874029887562,0.5712091695239802,-0.44077835240490926,0.976829696675994,0.5576656338366586,0.6835707761889639,-0.930168995307131,-0.47886120922552644,-0.6178657804329708,-0.06808023531799916,-0.16698709954233865,0.3138005826720759,-0.35468485568426994,-0.0830323322729205,-0.6577259191879069,-0.7621918484526904,0.07220766465939851,-0.22979223404803817,0.2561278239744156,-0.6385616377417602,0.27095743072457534,0.6540705758071392,1.321753177615615,1.0943534552732543,0.07945241622956785,-0.04956979667370536,0.6297260904257048,-1.1022613129687824,0.5502057224973675,0.6790446651178187,-0.6383108626874902,-1.0807572850015423,-0.9817978675409574,-0.2599988653696137,-1.2782925080428824,-1.0040790179805306,1
0.8999605533354552,0.22538049412136021,-1.96620217044633,-0.0769794802952322,-0.11281573805942054,0.4213190133655339,-0.8780235240573125,-0.510833159800477,-0.6112487036423704,-0.3204218560762247,-0.008542679686839066,0.532424610695944,0.5750470465434989,0.0023221265389484266,1.2457480928630789,1.164228617255258,0.2580282452453837,-0.3683249995888986,-0.810077622272011,-0.3348118717021986,0.9990510903371519,0.6765102090402625,0.3975761231438345,-0.2628668980436963,-1.3754745720474926,-1.9726027429930493,-0.09129475839118857,-0.36080394349011635,0.11317419523249025,0.1359170021525147,-0.21731982695292412,-0.8220939482162242,-1.4281729771165927,1.1883925247645757,1.8167256714113,0.22514776897703448,-1.6781020731268252,-1.48038946298687,-1.371573597960119,-0.5546951292722986,2.665450622163115,1.539205095833032,-0.45490896829224126,-1.5108758472707449,0.9529705316901343,-0.21852105500942268,-0.8720842917808498,0.2561278239744156,0.13045420191470253,-1.0083052607016232,-0.46086499077539594,-0.09057218019298581,0.3690034242415801,-0.11023558350622073,-0.04956979667370536,0.6297260904257048,0.8718434638657504,-0.6780486511475992,-1.1964620065445337,-0.3539275389222084,1.769938531859762,0.9930146256865979,0.5964397934608006,0.616455925826254,-1.0040790179805306,1
-0.8048409463077321,-1.5806954834341138,-0.8375149624194775,-1.1976502036156391,-1.166942399038163,-0.5360172151095238,-0.6667066166511957,-0.7607260852216247,0.12544173222451577,0.6177439388034262,1.480800598399152,1.9850090065946493,-0.7447693831678194,-1.8578613778165995,-0.19339698412475392,1.164228617255258,1.7175242071601493,3.9436800728093533,0.6618173558673723,-0.6172995084972076,-0.6272794024275854,-0.26052528753478066,-0.4566090671874336,0.11403319299996667,-0.5001670055221886,-3.5626077505386418,-0.46807012385320695,-0.9414042559771383,0.04669086621195769,0.4282544338635002,-0.21731982695292412,0.5760632364252639,1.5234212134470364,-0.38842470255521694,-1.205020715848263,-0.930168995307131,1.519873563943305,0.5321657963055612,-0.5025780228653725,-0.4254591193623119,-0.4344517026205275,1.2235567705801484,2.520104119862325,1.332957246338715,-0.8281596323043374,0.1206624512708687,-0.015694881470434317,0.13107306401750832,-0.5287022320765513,-1.6479366064147223,-1.204155368497086,-1.2204324664398665,0.2371216004176394,-0.34734558317595643,0.16491259232365896,-0.010024065111949814,-0.3749595530823757,0.5502057224973675,1.4292473337827598,0.4992224323736366,-1.876300303660511,-1.080538492202335,-0.2599988653696137,-0.39407657223728537,-1.0040790179805306,1
0.49883078871352876,-0.0756321688045521,-0.08505682373490923,-0.0769794802952322,-0.7057619848599631,0.13411814482301662,-0.8780235240573125,-0.7607260852216247,-0.9269731761567503,0.6177439388034262,1.8531364179206498,2.5660427649541315,0.6410378680290648,-0.47464800278298697,2.6848931698509113,1.041631296157135,-0.36747002414665875,-1.292326086531381,-1.1780513668068568,-0.05232423490718969,1.1345786314008799,1.1203691284705461,0.3975761231438345,-0.2628668980436963,-2.0319552469414703,0.2534042675707805,-0.09129475839118857,-0.36080394349011635,-0.618142423993368,-0.010251713702978038,-0.020187577833698036,0.19474764061394895,0.8675113933217854,0.24230218837270007,-0.8273024174408177,-1.2189981863781723,-0.7453591789813706,-0.37827586861244333,0.36641755222937406,0.2207209301876213,-0.8620244370734438,-0.03903653043138628,-0.45490896829224126,-0.6577259191879069,0.6231316124318989,0.36293638432821973,-0.8720842917808498,-0.3691459758101209,1.1191888529015832,0.27095743072457534,-0.08921980191455092,0.7568230344921747,0.6327670718894616,-0.15765758344016786,1.8807717043025736,0.8856261526407666,0.35234220680403117,0.2431421290861259,-0.07115800354712229,0.4992224323736366,-0.21891901478765968,0.20308962839557582,0.5964397934608006,0.7427724880841964,-1.0040790179805306,1
0.699395671024492,1.4294311458250095,0.667401314949659,0.20318820053486955,0.8095450902969792,0.4691858247892868,0.6011948277855053,-0.3858866970899032,-0.5060072128042439,-0.3204218560762247,-1.1255501382513322,-1.2106766643825022,0.9050011539713284,1.2424444627759805,-0.19339698412475392,-0.42953655702034005,-0.5759694472773396,-0.6763253619030594,-0.07413013320231926,-0.6172995084972076,-1.1693895666824978,-0.3591606029637326,-1.310794257518702,-0.2628668980436963,-0.7189938971535146,-0.38259773544745657,-0.46807012385320695,-0.6511040997336273,-0.21924244987017263,-0.35131205069912774,-0.020187577833698036,0.19474764061394895,1.3047846067386193,-0.7037881480191754,1.0612890745964094,0.22514776897703448,-0.8119836714203317,-1.192881568802237,0.36641755222937406,-0.5546951292722986,-0.7551312534602147,-0.03903653043138628,1.0325975757850419,0.47980731825587697,-1.883644173930691,-1.6237098667420584,-0.8720842917808498,0.6312921038451375,-0.0892646094157154,-0.04885824213197427,-0.46086499077539594,-0.09057218019298581,0.9624716314493135,0.7433604153048279,0.16491259232365896,0.373826028210643,1.9108459779891886,0.2431421290861259,-0.07115800354712229,-0.6383108626874902,0.9081002616458793,1.1411255626786645,0.1682204640455934,0.36382280131036915,-1.0040790179805306,1
